,Set_no,Imf_1_MEAN,Imf_1_MIN,Imf_1_MAX,Imf_1_SKEWNESS,Label
0,4401,0.0400933761971062,-0.6474982183126741,0.6861183371012649,0.0290751370908539,1
1,4402,0.0735113219480886,-1.3889926556756378,1.7147384748436678,0.5193025970328031,1
2,4403,-0.0102569301153648,-0.9489749983988645,0.924290265637956,-0.0150194684067644,1
3,4404,-0.0180211645512955,-0.5032843647416432,0.459044314505993,-0.0476697551850567,1
4,4405,-0.0546743739211748,-0.6119352312018128,0.7499802320283684,0.2558051348715192,1
5,4406,-0.0342280272869881,-0.6067821603290535,0.4747584744183656,-0.1883814320351531,1
6,4407,-0.0046340266315724,-0.2445919016983724,0.2915405183316724,0.1105731395702058,1
7,4408,-0.0059442726121988,-0.5349409187731102,0.4150811885353613,-0.2460793893602238,1
8,4409,-0.0047205145370029,-0.6327581359932113,0.9457665977624894,0.6904525739217257,1
9,4410,-0.0010951615061755,-0.2172188755986104,0.2420772858259929,0.0017817542586209,1
10,4411,0.0462707051902176,-0.4798389539511611,0.7587439199904136,0.8635718772543379,1
11,4412,0.0038659514497412,-0.2009707231907266,0.1703975064269635,-0.0575678927547761,1
12,4413,-0.0478256171173994,-0.4164294249558329,0.3529536375378379,-0.1225706116438359,1
13,4414,0.0076865819376351,-0.1920624437266229,0.1857308300448696,-0.0902918703206783,1
14,4415,-0.0584942962618707,-0.4240994058169861,0.3459462802833981,0.1974213307634467,1
15,4416,0.0237035034865625,-0.4044131122843957,0.5788109980534852,0.7498835693713337,1
16,4417,-0.00134579836999,-0.157641946140376,0.1469520316509502,-0.1816367547575428,1
17,4418,-0.0003984902785263,-0.1006986982372963,0.1081068360461074,-0.0212736457208266,1
18,4419,0.0063901480001208,-0.3647313908305226,0.3860028502858854,0.1758482243696418,1
19,4420,0.0013819721670402,-0.3400899744565602,0.3053355849891559,-0.4501094279287821,1
20,4421,-0.0053209734145601,-0.2380828524514173,0.271697504548533,0.2120003248528662,1
21,4422,0.0048728055912094,-0.1628629868831782,0.1538521509944874,-0.2296676074355314,1
22,4423,-0.0019436817837834,-0.370528639120765,0.2889493720882694,-0.7973985059427733,1
23,4424,0.0152298533792759,-0.5848969259302219,0.9539239626907948,1.0528765631339716,1
24,4425,-0.0019010661577209,-0.2389457873356021,0.2624118862578857,-0.1332832601971656,1
25,4426,-0.0048498447004118,-0.3231611896189095,0.2510723046074486,-0.6171313869046944,1
26,4427,-0.00375257466077,-0.3893781781936096,0.3539650709085842,-0.2437352173738707,1
27,4428,0.0123561899592499,-0.3492128873356287,0.383159235536902,0.1895490381370943,1
28,4429,0.0103957114846047,-0.3445969290218311,0.3623662590292574,0.0253041332061893,1
29,4430,0.0120296595848473,-0.410769130460249,0.4039226124313301,0.0938295142394514,1
30,4431,0.0106818244330362,-0.3955507857906011,0.3595776779449845,-0.0759775697010599,1
31,4432,-0.0049214737707107,-0.3734061358690447,0.3312484754960244,-0.5073663242051715,1
32,4433,0.0063015158223467,-0.2280560227670687,0.2230168691641365,-0.0142523107815844,1
33,4434,-0.0553296327040159,-0.6182275645538462,0.7094031370267022,0.2264783375693487,1
34,4435,0.0051725942446475,-0.2219611772898992,0.2539760190064702,0.1310439523510287,1
35,4436,-0.0006832632110886,-0.1991241705947805,0.1909682361479322,-0.0450973351264336,1
36,4437,0.0127084848979913,-0.4993392413093787,0.8416401148344522,0.7414529701864115,1
37,4438,0.0092375231323435,-0.5690681722793522,0.5140675061902793,0.0296729466891806,1
38,4439,0.0262620986240734,-0.3472292905944421,0.3733352242732319,0.1977096008908147,1
39,4440,-0.001427788161677,-0.6652328519227733,0.6308307842260814,-0.0296887411170376,1
40,4441,0.0070742979378466,-0.3547657883209965,0.406427761608729,0.2143111070128587,1
41,4442,0.0017826747708618,-0.3356640745903411,0.3074655179035206,0.1088438076684917,1
42,4443,-0.0162790967395938,-0.3905888286438307,0.3524046677993228,-0.224845293388741,1
43,4444,0.0028828253998561,-0.2292574081655522,0.255059952224384,-0.0453172606168317,1
44,4445,-0.0517591028390154,-0.6290769975087112,0.510442348119857,0.0900098601960746,1
45,4446,0.0111013554771688,-0.48116386610251,0.4547261661551856,-0.3515053458135634,1
46,4447,-0.0054431734912133,-0.473156646064142,0.5163471625234546,0.1046385221690817,1
47,4448,-0.0065594225802095,-0.4490364389184283,0.3955487501979792,-0.0486651272467717,1
48,4449,0.0079591155179394,-0.3174327076973776,0.3246635586149538,-0.0830343670005139,1
49,4450,0.0285118980925833,-0.3163611102095195,0.3860856881088447,0.3727767923101094,1
50,4451,0.0835967372746238,-0.5093077268163726,0.9568026101262972,0.9406894559280242,1
51,4452,0.0008368770856681,-0.3452334579871102,0.3441160713956557,0.0856022039579001,1
52,4453,0.0112464232916689,-0.3632726812711496,0.3091531279316231,-0.164271905198156,1
53,4454,0.0017307879969815,-0.5277486184176345,0.4856020904398413,0.035358897463879,1
54,4455,-0.0132701825061811,-0.5033166077831421,0.4481262307195868,-0.4779127256944742,1
55,4456,-0.009592296046368,-0.340220603032671,0.3137628918257924,0.0758636520858729,1
56,4457,-0.0727108977084146,-0.6147935906592403,0.6462871643556896,0.0141143112984181,1
57,4458,-0.0373906628709847,-0.5101359894362623,0.403138407237246,-0.1350084881106954,1
58,4459,-0.059729963012521,-0.534730126817718,0.4011454464221521,-0.1098003606838226,1
59,4460,0.026046607654249,-0.3743368780907019,0.5518235469792522,0.4132565867836553,1
60,4461,-0.0781534057592846,-0.5443190075273708,0.6353668481883219,0.3258365965455825,1
61,4462,-0.0283452993595683,-0.5078485552896378,0.406848294724223,-0.3630401981112262,1
62,4463,0.0314808954953469,-0.4304853501680298,0.6284848911839196,0.7974249155098111,1
63,4464,0.0088767724011228,-0.3657030920686489,0.4039775330383139,0.0795664311272092,1
64,4465,0.0027650063277341,-0.4994486069995132,0.4172364506852457,-0.56343325400878,1
65,4466,0.0307086163737736,-0.5224885213690817,0.8187358045874336,1.0377008925395552,1
66,4467,0.0078433754151923,-0.4068272510119795,0.4396342989508252,0.1353976548980932,1
67,4468,-0.092131499815841,-0.7580753383757998,0.5422138177114196,-0.2145550182815757,1
68,4469,-0.1030173685911826,-0.697962191469117,0.5379018748160627,0.0558044306679934,1
69,4470,0.0023159279666879,-0.188673682905288,0.2176471620371641,0.3660048279346422,1
70,4471,-0.1149754033161865,-0.8974191157836198,0.6296632878156376,-0.1020051818693253,1
71,4472,-0.0511473833528139,-0.5352078133448778,0.4893176858520079,0.3400849112631648,1
72,4473,-0.0242310489995421,-0.5173189156066516,0.4520165683566363,-0.1836889032645668,1
73,4474,-0.0729338354424749,-0.6406116435317928,0.6094002044462357,0.2461430717554024,1
74,4475,-0.0720682778104424,-0.5957273538749175,0.4531496976051476,-0.0758792386725279,1
75,4476,-0.0457326263500915,-0.5939156868629141,0.7552345000338083,0.37841803192671,1
76,4477,-0.1089949952715866,-0.6368295918297089,0.7115117785152382,0.5327025488413322,1
77,4478,-0.0550282368361251,-0.4872093699390132,0.4610640825212118,0.301447455877758,1
78,4479,-0.0136711608213808,-0.4854235539066085,0.6770468558273124,0.5071914992726677,1
79,4480,-0.0090911066997781,-0.4252262607416091,0.3310755955165068,-0.5422331052091467,1
80,4481,-0.0247758946953402,-0.5509125595238092,0.4303306100802341,-0.6605349444356892,1
81,4482,0.0190289170655981,-0.5058383431653668,0.5184522261456772,0.0297414008021922,1
82,4483,0.022100289612755,-0.3590451957552542,0.4585556014923495,0.3527276345527319,1
83,4484,-0.0413904664372414,-0.6891478524522414,0.5611873565496526,-0.2484401897893531,1
84,4485,-0.0800505707768609,-0.6378773050422284,0.7448352385546562,0.2097666852249264,1
85,4486,-0.063931842223547,-0.6479920995001878,0.5019111879348093,-0.0242681541888861,1
86,4487,0.0269457312543323,-0.453027322845744,0.6677591633974229,0.4634611654478276,1
87,4488,-0.0008898200591479,-0.3561101968021191,0.3330797825479564,-0.0286044211094224,1
88,4489,-0.0546439621329043,-0.484144966970834,0.5458997059023005,0.1544745886794864,1
89,4490,-0.0647224013184281,-0.5800807919245017,0.6778512153534195,0.2329665827096101,1
90,4491,-0.0699718573500727,-0.5976709191126051,0.4678443035728777,0.0005886808483172,1
91,4492,-0.0016404298406716,-0.2452330510052546,0.2766102293022187,-0.2788402691766542,1
92,4493,-0.0484485557593487,-0.458992922874532,0.4043045258630636,0.0942750981294898,1
93,4494,-0.0158724517046168,-0.4266665373059189,0.6036695460706658,0.6406072213219839,1
94,4495,-0.0009593109097109,-0.182622215418732,0.1701661306125277,-0.0757031894437484,1
95,4496,-0.0232591911192017,-0.5009720934042746,0.4996432130999124,0.0452951692633574,1
96,4497,-0.0051812676511975,-0.6080639383063959,0.5704242006598761,-0.020751035389121,1
97,4498,0.0055734930248832,-0.499184258436136,0.5625315180405356,0.0812579485209307,1
98,4499,0.017620128285458,-0.6899807279415768,0.7515318455098523,0.0209620320250905,1
99,4500,-0.0847319592394331,-0.7863843743860819,0.609026791898168,-0.0166750416620881,1
100,4501,-0.1374974285720288,-1.5718431537445996,1.7660340376384855,0.2869848393085489,1
101,4502,-0.0579964989767914,-1.315441837001391,1.1610178351424738,-0.0068128161355108,1
102,4503,-0.0661019686108941,-1.1522236142318163,0.8703637171108138,-0.1454163733934103,1
103,4504,-0.1002660566012742,-0.94732942890137,0.7285775558895231,-0.0365823473047857,1
104,4505,0.0568720383861613,-0.95129094515953,1.6626371370685764,0.7236606758324832,1
105,4506,-0.0634431695712938,-0.713584096517516,0.6360149761459626,0.0303310638549652,1
106,4507,0.0272930287864385,-0.7639691021523469,0.7380235856593533,-0.096776576234222,1
107,4508,-0.0974120940407015,-1.09916550595521,1.092529738548688,0.1267387549104498,1
108,4509,0.0090501933919408,-1.2480060031930558,1.7868124868833264,0.7536437624246627,1
109,4510,-0.1492611842948241,-1.1241122712185103,0.8768648994460353,0.1128026004231371,1
110,4511,-0.0502046098408797,-0.770125347514,0.6813545636981782,0.0562725402943779,1
111,4512,-0.0410133044581677,-0.698263480351965,0.8790637187098481,0.2937377635047623,1
112,4513,0.0084549599709406,-0.5276976078875479,0.5042952053405021,-0.0185837712623385,1
113,4514,-0.0688720538085821,-0.8045516515024578,0.7029838068086248,0.1115241868500129,1
114,4515,0.0379737257680108,-0.6506490700030844,0.9103922829846376,0.1873244265035507,1
115,4516,-0.0920970602777151,-1.0183824026954469,1.1784420825431277,0.279022369569055,1
116,4517,-0.0409785981065944,-0.9454104214400014,0.796950600953445,-0.1287037422061921,1
117,4518,-0.1755112047165467,-1.1947302926225238,0.9239852897961456,0.0602434687964076,1
118,4519,-0.1236381812461005,-1.1083545549153144,0.8676939754948245,-0.0900502743943324,1
119,4520,-0.1710333544340287,-1.1201511407512932,0.995828078215383,0.1880599468239317,1
120,4521,-0.1201907972063624,-1.209313580573962,1.0503832049090742,0.2002331890483918,1
121,4522,-0.1218563186705879,-1.0905251867813002,0.95556214841805,0.072194724657902,1
122,4523,-0.2074302465107259,-1.2891716395190522,1.0606386992697463,0.1499215071508949,1
123,4524,-0.1529987357007673,-1.3415696149901764,1.1317587711479824,0.0362524757303697,1
124,4525,-0.2140530856146306,-1.6364972281394394,1.2813598654679992,0.1580011008006433,1
125,4526,-0.1298437107395907,-1.4004074821929495,1.2997161086421936,0.0078701341763262,1
126,4527,0.0183370394882244,-1.164536145979771,1.1581155834457943,-0.1319759475452576,1
127,4528,-0.1752562635919644,-1.865479153380814,1.76496895468465,0.2253999787593918,1
128,4529,-0.2474780070275719,-2.1603808739278234,2.13634289777234,0.108008738677136,1
129,4530,-0.2691374698162082,-1.677505330775457,1.3625277034040877,0.129897207639635,1
130,4531,0.0737594845216504,-1.06032763236888,1.0898156473062333,-0.1519495876753603,1
131,4532,-0.137624805262126,-1.6710467595279672,1.5609993484498408,0.2335635666962481,1
132,4533,-0.1616759707101414,-1.3839299618769612,1.1364733984950766,0.1067485375216897,1
133,4534,-0.020783117221824,-0.8382597116869163,0.8522132126005818,0.0321912920027945,1
134,4535,-0.0859604299590279,-1.0224707951383505,1.027865855776496,0.218314499624345,1
135,4536,-0.0967588019029461,-0.8681057026885342,0.7577011999281411,0.0642685648568765,1
136,4537,-0.1244432463966772,-0.9198146777570024,0.7074266819947772,0.0608874603058138,1
137,4538,-0.0875519046606694,-0.8847732397254044,0.8736132907915617,0.0897523242495587,1
138,4539,-0.0666345265131615,-1.028696189722052,0.9567017184701224,0.0736585207360642,1
139,4540,0.0299093894830407,-1.085909120625785,1.5817143805007985,0.6983943616444171,1
140,4541,-0.1088506385161979,-1.093398186524247,0.9401148411879712,0.1507576522706941,1
141,4542,-0.0563282165647841,-0.8861345770737247,0.7798141449860021,-0.064995311923848,1
142,4543,-0.1795463738213898,-1.160576389561981,0.9624471968581532,0.1471779837752596,1
143,4544,-0.1704821347364905,-1.1188234459428017,1.0409897065402745,0.2219174360724297,1
144,4545,-0.1123505573397522,-1.0681511576701823,1.0327449714081176,0.1343585571326849,1
145,4546,-0.0471412894562392,-1.2284946550255025,1.4550737111238925,0.348374611204253,1
146,4547,-0.1671345339520548,-1.3729995763903644,1.3328921239245048,0.180887982996783,1
147,4548,-0.0928957968176247,-1.0773235197307982,0.9593755100768886,0.0549398512489555,1
148,4549,-0.1342328478646577,-1.422582348933739,1.0412619464210522,0.011876186241164,1
149,4550,-0.0672927301797175,-0.8499317997231947,0.7456489430198998,-0.0302619292918002,1
150,4551,-0.0394168515069006,-0.8938784761260145,0.7647663620764955,-0.0123783894784149,1
151,4552,-0.0192842344192397,-0.871464734769918,1.0317905537558696,0.2892080657651514,1
152,4553,0.0344179092059786,-0.7238868016484772,0.6944673121413752,-0.127967935827368,1
153,4554,0.0267791439229795,-0.7643011228944165,0.7399575411986634,-0.1075147342617206,1
154,4555,-0.0960242625369418,-1.021025778497463,1.0338828845180732,0.1555221176367643,1
155,4556,-0.0624481561082589,-1.2631364908088032,1.6683925945578093,0.4151218182204261,1
156,4557,-0.2242973768069185,-1.5484828649786828,1.1386361841757189,0.0857836277648922,1
157,4558,-0.1050630231118589,-1.242900038000999,1.0755875845642766,0.1244744887998457,1
158,4559,-0.0400459125739738,-0.971180384316332,1.2476067451562731,0.3841193921457447,1
159,4560,-0.1682011988196286,-1.3019183289468272,0.9611159238308218,-0.15768725173879,1
160,4561,-0.1119518367198814,-1.004127099776508,1.0051749701214467,0.0964246473937945,1
161,4562,-0.0583285370244529,-1.178465756556553,1.3272964640822429,0.3401693705504096,1
162,4563,-0.0491489367012195,-0.9283065995455716,0.9006617989669916,0.0830748809307128,1
163,4564,-0.1005662279555902,-1.114115033353673,1.1755954337720402,0.2050310776631933,1
164,4565,-0.1162861982147672,-1.1624819061658118,1.0405421152189505,0.0651353404911044,1
165,4566,0.0712160290904568,-0.9859548652703528,0.9243970993140628,-0.172832865886597,1
166,4567,0.0090877514942822,-1.1325947860901209,1.032230460034219,-0.1215219047876901,1
167,4568,-0.1008922367894932,-1.2220256613635647,1.4818737922894338,0.2661314857655476,1
168,4569,-0.1492286366973596,-1.3388550494913245,1.181249014196184,0.0854893251537115,1
169,4570,0.015050236064569,-0.9724553087475684,0.92307663125417,-0.1126548888391817,1
170,4571,-0.0981445891166844,-1.168949869312245,1.3612594275835148,0.2102367790667357,1
171,4572,-0.1532882812166135,-1.3522353181528637,1.188801735481455,0.099586553966108,1
172,4573,-0.238845914077332,-1.54116950956432,1.2181359929795508,0.1286799116438105,1
173,4574,0.013135363677678,-0.9505437326039152,0.935503877242186,-0.1251862203278266,1
174,4575,-0.1017486563959877,-1.39072968781151,1.5492847775503775,0.2600493751709279,1
175,4576,-0.1479094919977206,-1.345645706522423,1.1868902514929172,0.0933069884273736,1
176,4577,-0.1859252028164909,-1.5793764404102189,1.286208065950636,-0.0596276125148504,1
177,4578,-0.1454033159179414,-1.6926196115100174,1.2511712935261827,0.0272559609656761,1
178,4579,-0.0800403965777036,-1.1649804624187774,1.2798894371965883,0.272301247433329,1
179,4580,-0.1049040448023257,-1.2411438591202728,1.3571093350933587,0.1896923955830524,1
180,4581,-0.1437675187784257,-1.1153999060557565,0.9028331221969006,0.1040419511613971,1
181,4582,-0.2151304253453575,-1.2320598007410677,1.0814221164729283,0.2016770307425715,1
182,4583,0.0376300619645893,-1.0337251804237118,0.9677828042127262,-0.0768438540709237,1
183,4584,-0.2043339308979825,-1.4045759636837596,1.550849661783981,0.2924508072015744,1
184,4585,-0.178609153301872,-1.630346464033257,1.807220314473608,0.2599382461368943,1
185,4586,-0.1507654891405379,-1.610329005545144,1.3100884461675246,0.0413728705122162,1
186,4587,0.0507770818202987,-0.8533352560512415,0.7825896089210811,-0.1570948709085126,1
187,4588,-0.1445701270374287,-1.2209586661799796,0.9439373854871912,0.0800924693133867,1
188,4589,-0.199046466268992,-1.2991959535024205,1.1898587499608193,0.1919655348319582,1
189,4590,-0.1723625904764618,-1.5753575518145784,1.6262842154674892,0.2336744524571747,1
190,4591,-0.1518232558851594,-1.4425671904077086,1.1896087335497474,0.0605513908508098,1
191,4592,-0.2372299289916045,-1.3945347325802255,1.045240812203722,0.158579596413726,1
192,4593,-0.1515106236357471,-1.338668891708747,1.018468227579932,-0.0633467654691398,1
193,4594,-0.102166169708688,-1.0650273168681414,1.03440720405524,0.1439338644223956,1
194,4595,-0.0908727956024107,-1.3364966298335903,1.3609539794796444,0.2096502360432196,1
195,4596,-0.1640940416268775,-1.4494925108984926,1.143332655878582,0.06392674808772,1
196,4597,-0.1929072596263481,-1.5914810132928423,1.629317940936622,0.1926920423257266,1
197,4598,-0.1535159089228614,-1.459359067149864,1.578196590340304,0.2438747621183818,1
198,4599,-0.2103892246272768,-1.4902322730455335,1.2525548883889102,0.1458670644289799,1
199,4600,-0.2293106550528109,-1.7575770741826025,1.3054924746422982,0.0196450458552071,1
200,4601,-0.0988567042227108,-1.4852401109360218,1.4275876204533988,-0.0426138180154243,1
201,4602,-0.149347641399555,-1.4242677680953368,1.2612871816588265,0.0293882363681397,1
202,4603,-0.0680372532965457,-1.795146810892231,1.826459998973412,-0.0923373320726731,1
203,4604,-0.0891191454406237,-1.1748051992088506,1.0031296180506533,0.1312223316244486,1
204,4605,-0.039880193736473,-0.784347313261017,0.7323106551965353,-0.0039114026692485,1
205,4606,0.0193803365055945,-0.7959934852006171,0.7331842023795074,-0.1105779032935631,1
206,4607,-0.0785599935871409,-1.3012492132004698,1.0955527550440254,0.0684884641799024,1
207,4608,0.038984611774639,-1.3043841625156858,2.054731499517328,0.5371976656926736,1
208,4609,-0.1094333013937058,-1.1854200711893466,1.2032327950259685,0.1344008788629399,1
209,4610,-0.0899661674143199,-1.0267401532096894,0.947539884255356,0.0431322830509496,1
210,4611,-0.0244360594997656,-0.9954145184191584,1.1136828812613118,0.0386118346075413,1
211,4612,0.0333722402840755,-1.1210588484721051,1.3003179843057129,0.2294099920133397,1
212,4613,-0.12467674426762,-1.494582946563898,1.4168390028716071,0.0315594824885846,1
213,4614,0.0491018897393686,-1.7388772590758197,2.795875128087276,0.5922814317104177,1
214,4615,-0.1018152178744821,-1.2604983329546315,1.1050450219114705,0.0762565997936588,1
215,4616,-0.0875567169987379,-1.4436405354830204,1.25762158948438,0.0477694075280214,1
216,4617,-0.0713923844193583,-1.0946573404877402,1.034653969950133,0.0011935186001191,1
217,4618,-0.1194589906612778,-1.371683132263112,1.0530917433808653,0.0190064856787208,1
218,4619,-0.0482522521464394,-0.9313528814716516,0.8074738610018226,-0.0188584923020445,1
219,4620,-0.1251208683736217,-1.233622978645312,1.3172928320881672,0.0937404400508989,1
220,4621,-0.1163677287195351,-1.4537350736583892,1.4801345580551089,0.0976768524677974,1
221,4622,0.0293105898161211,-0.8414404320050044,0.766515962089521,-0.0667854607784782,1
222,4623,-0.0235721448969317,-1.4040192154632147,1.0447783081727595,-0.1701163841320231,1
223,4624,0.0735635153383448,-0.8794521409638718,1.1392519948678128,0.0729959719532203,1
224,4625,0.1437126614574884,-1.6093664262207108,2.8542183464643363,0.9449103026154484,1
225,4626,-0.093992525897978,-1.3997997731937089,1.4145962041457325,0.069855075697414,1
226,4627,-0.0493448824365946,-0.9709971402708768,1.1726473919439555,0.2214496947275177,1
227,4628,-0.0541042547497728,-1.0296731084943485,1.010263589691929,-0.0051747211795052,1
228,4629,-0.0971973174319677,-1.5258593917183532,1.359693201879086,0.0085227033597077,1
229,4630,-0.1033400780448231,-1.1923209260583936,1.386534713199071,0.2102497791950854,1
230,4631,-0.0747038031573412,-1.217974185549719,0.9909925837047304,0.0380541632704931,1
231,4632,-0.0993447133559732,-1.2984757870778711,1.2931730305485658,0.1346807726464456,1
232,4633,-0.1105234696724413,-1.4126985602588351,1.3844087584664144,0.0966159448847766,1
233,4634,-0.1265354087528185,-1.4359633060075114,1.06322236013242,-0.0407001742388649,1
234,4635,-0.0476357017964502,-1.5455919521629304,1.7967881360731206,0.1172573753933214,1
235,4636,-0.1054568843423824,-1.6115968361130937,1.4868739590343356,-0.0228613222567042,1
236,4637,-0.1999538653992714,-2.395407586149117,2.247938017344529,0.0529662240222819,1
237,4638,-0.4034219731034108,-3.6064538568966302,2.2257136149470247,-0.3966822398897496,1
238,4639,-0.1026448848673544,-2.1706832040992707,2.088658199315786,-0.0724540767251216,1
239,4640,-0.1885082962244798,-1.5980613717025358,1.600179365186453,0.3206998440148246,1
240,4641,-0.0820045329051041,-1.8209455542281727,1.680894809357706,0.1333649780394032,1
241,4642,-0.0172618483824504,-1.999641104571573,1.7831566104722143,0.00787285833426,1
242,4643,0.0011137647664444,-1.3602444656481092,1.335541412477371,-0.0943291876645985,1
243,4644,-0.0281853415261813,-1.343045188739994,1.185249894996025,-0.0711712841156483,1
244,4645,-0.1913980193864704,-2.0524228065486474,2.0095890913575234,0.1334196984570854,1
245,4646,0.0468322121969785,-1.222703412786076,1.1416596906010374,-0.0418432281948051,1
246,4647,-0.0870506801036964,-2.093076138905705,2.085832612884712,0.0572373995643359,1
247,4648,-0.1181119120649503,-1.71887125656986,1.7796828169938983,0.0185334782133779,1
248,4649,-0.0626859037480702,-1.4298523418606668,1.302354398864813,0.0165384592415995,1
249,4650,-0.140740938697518,-2.14866352458208,1.3525461653370527,-0.3911250618690194,1
250,4651,-0.0589909593546221,-1.1863903006043863,1.1041167730310617,-0.0321014701010419,1
251,4652,-0.0617015024324834,-0.8749768607610817,0.7125178199186677,-0.039111393046451,1
252,4653,-0.0197724737019138,-0.9994022859525562,0.964546636989272,0.0233319637020981,1
253,4654,-0.0028856003990275,-1.158285152831101,1.1693213916354257,-0.0146142495251645,1
254,4655,-0.2988085870431962,-2.781306338295903,1.3785658592041152,-0.8770394924437053,1
255,4656,-0.0945627781540842,-1.1581284160596268,0.8940009230501071,0.0995741071050573,1
256,4657,-0.1186917041232554,-1.132644176470748,0.98699198922268,-0.0165628875176536,1
257,4658,-0.0477704085589433,-1.1538987598316277,1.1963681176719652,-0.0122592598718841,1
258,4659,-0.0597838931812462,-1.7425281524818843,1.8853180608108429,0.0822130864283986,1
259,4660,-0.0803793138256159,-1.6079658829291503,1.3907996166535763,0.0091809981659894,1
260,4661,0.0289517890852152,-1.0377837805853385,0.9362790178534672,-0.0750155785502018,1
261,4662,-0.0390702077144357,-1.4953917612667071,1.140946404336889,-0.1070153260944766,1
262,4663,0.006109741491079,-1.384421869717174,1.4943099707696206,0.3302464194182373,1
263,4664,-0.0869504312283972,-1.1287070706570006,0.8153643312681084,-0.5352426145086255,1
264,4665,-0.0159480784868968,-0.5587061233669124,0.484841018023865,0.1115784374140411,1
265,4666,0.0066210166319004,-0.5350770648667372,0.6156665772100853,-0.0313046840213386,1
266,4667,-0.1538086898687149,-1.845678696046198,1.2739152203518276,-0.2048479617087967,1
267,4668,-0.0518041786566068,-0.960731150506248,0.7525045699937896,-0.1956638912487883,1
268,4669,-0.0623499512374316,-0.960719178157584,1.1679267642581388,0.2063901626074184,1
269,4670,-0.0404899816202399,-1.0226632816554546,0.9421741127030084,-0.0468526877934967,1
270,4671,-0.1316495840916196,-1.3954667405047898,1.1541489454278522,0.0160487746883658,1
271,4672,-0.0608698743922473,-1.5772088006355462,1.3089483000070778,-0.039060252515092,1
272,4673,-0.0218932264548611,-1.1116044851927065,1.0256961079493307,-0.0356445035098295,1
273,4674,-0.075605755456051,-1.4097308257215548,1.4478057918971916,0.1757006459984357,1
274,4675,-0.0138054352091128,-0.9535693942955764,1.0874055487629803,0.2335955893042876,1
275,4676,-0.0853432069109168,-1.006749875216226,1.22245643411064,0.1331807328209535,1
276,4677,-0.0371694590890434,-1.0210013904086757,0.8904724975243739,-0.0186267532344552,1
277,4678,-0.0447391616076052,-0.8800820827132041,0.7458258442869183,-0.1094795358858428,1
278,4679,-0.0799478346435548,-0.9680616383405488,0.9064004573971453,0.1330700892875743,1
279,4680,-0.149440263181129,-2.3781116724885973,3.1030089784670336,0.251306681906311,1
280,4681,-0.0025304068082723,-1.0123013272661066,0.9450025574522808,-0.0467982586512816,1
281,4682,-0.0358392669210641,-0.7145046960316479,0.6256549454803237,0.100448579900563,1
282,4683,-0.0465907555570812,-0.7598427769993437,0.8365898964230518,0.0975838051002044,1
283,4684,-0.152137369659816,-1.6221103131850558,0.7809584039817636,-0.9556358287446935,1
284,4685,-0.0110148900974154,-0.6305635824450592,0.6278032494776509,-0.0847582368819909,1
285,4686,-0.0870407713265277,-0.7076444883911688,0.5759281466263078,0.1772593429922817,1
286,4687,-0.0485445182575559,-0.6539236875677008,0.5936550846267612,0.0087222566750044,1
287,4688,-0.0092106579624423,-0.7527961622733303,0.6816569217926051,-0.0048024232214085,1
288,4689,-0.0633063611883636,-1.0453662123622005,1.3039055651933875,0.2193448813560546,1
289,4690,-0.0977121815143135,-1.66322451190396,1.3749198551252395,-0.1951037356162536,1
290,4691,0.0302492577758606,-1.2877420771515284,1.3212714212808718,0.013370663710073,1
291,4692,-0.1406361722082599,-2.0214498392133278,1.2907278407473692,-0.4706205415648429,1
292,4693,-0.1169754264468223,-1.335006677610422,1.3875241763698176,0.2701382345900497,1
293,4694,-0.0195812308433987,-0.8961655679420246,0.8889035292122771,-0.0023336095234572,1
294,4695,-0.2523094260706384,-2.420384009771004,1.485961121639503,-0.4353732813999165,1
295,4696,0.0729877809103407,-1.3556367903856463,2.4592779659173845,0.8631819470222273,1
296,4697,-0.0710045194744008,-1.119882690582072,0.940376315530179,0.0044675511098329,1
297,4698,-0.0549471674589602,-1.1413891419138469,1.0744521226512258,-0.0527059198689832,1
298,4699,-0.0803650051953593,-1.6042590000138826,1.3746124547110852,-0.081536986606828,1
299,4700,-0.0866538855586802,-1.7785820835579318,1.694929772292627,0.0640765008044938,1
300,4701,-0.0078961398484714,-0.4194052785178181,0.4360965030619679,0.1502176734000224,1
301,4702,-0.0190716739401015,-0.2398876079021747,0.2754407763828791,0.1198268181833838,1
302,4703,-0.0211338286612138,-0.276418078408207,0.3260996070134246,0.0036445661605316,1
303,4704,-0.0064296278630472,-0.2866919210197794,0.1749116128657888,-0.6063623171892226,1
304,4705,0.0106450262098623,-0.2353560190756579,0.3178456893406964,0.5120733253910016,1
305,4706,0.0016641562722327,-0.2384642674565195,0.2616185823893223,0.3701171241399084,1
306,4707,-0.0027885485306404,-0.2094944313485423,0.2229825839634641,-0.417043754490712,1
307,4708,-0.006544862246882,-0.2204681297771027,0.1952987019200919,-0.6311186322503477,1
308,4709,-0.0106823295734673,-0.2072919992867876,0.2390264266112884,-0.1099144088420182,1
309,4710,0.0041077269719591,-0.2559864016685422,0.2747558912606165,0.1765698536991436,1
310,4711,-0.0003141007349564,-0.2058983186191888,0.1654062222824453,-0.6144487600586767,1
311,4712,0.0005643832632812,-0.1166960211836421,0.1330112822751389,-0.1055309209007815,1
312,4713,-6.974796043559823e-05,-0.1466983165153434,0.1428452374542859,-0.1657330771551556,1
313,4714,-0.0125925227146545,-0.2908046598236958,0.2698959270194433,-0.1160087889313242,1
314,4715,-0.0153082184452831,-0.2241375831213223,0.2346294651198279,0.1349759789442127,1
315,4716,-0.0243595082673643,-0.2865933868714874,0.2404240320990911,-0.1230227551004265,1
316,4717,0.0040731197515535,-0.1808073943827642,0.1821495213067176,0.6076713969520248,1
317,4718,0.0003059565938048,-0.1558427042196907,0.1447801847116031,-0.0558336215747109,1
318,4719,-0.0048404389005135,-0.2304724476809731,0.254938847711453,-0.1499162557281916,1
319,4720,0.0022631602913506,-0.1782536880313961,0.1551805730744979,-0.2018880850898746,1
320,4721,0.0012738008579009,-0.1194819163549549,0.1318163091182813,-0.0893376335105268,1
321,4722,-0.026526843347203,-0.3098198246082642,0.2349516093890482,-0.2163046532331279,1
322,4723,-0.002051829521312,-0.1975339583287031,0.2031671450321466,-0.0157133589904743,1
323,4724,0.0017990500793676,-0.155897068903175,0.1695342155709685,0.0424246126307599,1
324,4725,0.0035484641398557,-0.2628960631562195,0.2383467329605136,0.0856112580169637,1
325,4726,-0.0007654089798841,-0.1363603698648527,0.1279389851930239,-0.0022822051643764,1
326,4727,0.0042932388811135,-0.172834045108742,0.1673229125248335,-0.0435391441728733,1
327,4728,-0.0051031552100836,-0.2457131844630405,0.2559237761338849,-0.2154666428459364,1
328,4729,-0.0208162479493586,-0.2688712619850853,0.2132637473924225,-0.5794849570718859,1
329,4730,0.0003084709609522,-0.1502622684701468,0.1603077955135413,-0.1906722019192874,1
330,4731,-4.485866750309437e-05,-0.1331276832970995,0.1405947682891409,-0.0600394202191214,1
331,4732,-0.0015705631496777,-0.2169895151851325,0.1726240038963321,-0.3479015596227374,1
332,4733,-0.0005894131880728,-0.1262618566600173,0.1329536766279918,-0.0318705207691016,1
333,4734,0.0039455489604474,-0.2023569659717756,0.2207458078225208,0.4989420960246086,1
334,4735,-0.0157408492028366,-0.3551455744886247,0.2874080764944588,-0.8677428562198972,1
335,4736,0.010804211642672,-0.3564951364013757,0.2408988696862347,-0.3478537146617093,1
336,4737,-0.0412211198750236,-0.4026955939493053,0.3261099132088114,-0.0927771454755093,1
337,4738,0.0008015279393508,-0.1391225892153115,0.1446032036535922,-0.1175811015153951,1
338,4739,-0.0125626291523873,-0.3844053200043356,0.302568223757197,-1.0025293951160237,1
339,4740,-0.0004287048759259,-0.1374497834960932,0.1432325860184391,-0.1305507968189527,1
340,4741,0.0004862959831912,-0.2007551139266749,0.2389040725832977,0.4364262902919296,1
341,4742,0.0006167553317682,-0.1313069696944941,0.1416599177633263,-0.1900333787376064,1
342,4743,0.0003248603234089,-0.1171165029489474,0.1211299526728312,-0.1626359211049214,1
343,4744,-0.0142333955419361,-0.2477393618910112,0.2910549351555577,-0.0391440113991485,1
344,4745,-0.0017254531518842,-0.2057069321244513,0.2368883602428568,-0.3044876282187544,1
345,4746,-0.0014499201013239,-0.2552945599808626,0.2323854386274468,0.0096179520147349,1
346,4747,0.0043252124404574,-0.2598189111967797,0.2805083816237386,0.3642880436817892,1
347,4748,-0.0019088908628146,-0.2478880429176772,0.1676771748705066,-0.848960255177174,1
348,4749,-0.0019285212658409,-0.2958091800588132,0.2744254870352544,-0.3999756644318376,1
349,4750,-0.0076252828764019,-0.2623115603665937,0.2965330691510359,-0.0532116188718811,1
350,4751,-0.0003813920836981,-0.1408310017835599,0.1425386902761046,-0.1243453461392945,1
351,4752,0.0084278033396422,-0.2129603364885647,0.2859791222739161,0.8789803917283973,1
352,4753,-0.0015135911708006,-0.2348062969150248,0.232913412181959,-0.1554254147988201,1
353,4754,-0.0136795075784978,-0.401511325064436,0.2919100905243733,-0.4650119245763554,1
354,4755,-0.0112157822215173,-0.2349745930380582,0.2387990367201971,-0.3867392038973423,1
355,4756,-0.0099824994837358,-0.3286297895323575,0.2773121470095109,-0.3120273361223099,1
356,4757,-0.0107507711528673,-0.2372514581150721,0.2733993109357868,-0.2032743122329917,1
357,4758,0.0092285561594942,-0.2935385161624237,0.36282082654193,1.0428219257688869,1
358,4759,-0.0069467388921598,-0.2953044893440685,0.2761884041757471,-0.3039286787381775,1
359,4760,0.0022555054608688,-0.1722810833109549,0.163898481138435,-0.1918019354486261,1
360,4761,-0.0023571452121948,-0.1565384165068016,0.161908935616337,-0.1277985453662735,1
361,4762,-0.0008883362638931,-0.1620044677439802,0.144077081588792,-0.1238316469127336,1
362,4763,-0.0283201305162204,-0.4130163445734729,0.3333464985387875,-0.453431147227788,1
363,4764,0.000894531308486,-0.1597320132363737,0.1595112274889096,-0.1959835102493085,1
364,4765,0.0001475069651616,-0.1288289463395403,0.1392109652917779,-0.1032934739943423,1
365,4766,-0.0118072197777093,-0.4002080041775209,0.3445206237442233,-0.5232291738242351,1
366,4767,0.0017935533340586,-0.1489638796993121,0.1629189168422787,-0.1452276461020437,1
367,4768,0.0207475079602855,-0.3066022562996588,0.4120050106355613,0.2528598944219435,1
368,4769,-0.0188818079696907,-0.3339576076688904,0.3035211954465032,-0.0084760424302362,1
369,4770,0.0006588005811445,-0.0864302009315873,0.0910464447314846,-0.232195564789139,1
370,4771,-0.0242247083258242,-0.4212228839117944,0.2932526311610732,-1.6081294641879682,1
371,4772,-0.0064413535889943,-0.2573768568789712,0.2744828900755434,-0.0787066214103773,1
372,4773,-0.0298572753481729,-0.3801024430868869,0.3463237811458188,-0.097585716425176,1
373,4774,-0.0119948688259386,-0.2452640661705418,0.2796187253522127,-0.0384282852941819,1
374,4775,-0.0009782395186726,-0.1345989151611635,0.1472708381348313,-0.0814873589511092,1
375,4776,-0.0095868235870722,-0.3315296778773099,0.2997864263274208,-0.2215448787513873,1
376,4777,-0.0191257221485513,-0.3794468222014747,0.2877178857006468,-0.7569296361520912,1
377,4778,-0.0121822414244372,-0.2518039685973283,0.3066823123590256,0.1925938373179712,1
378,4779,-0.0136159479798242,-0.230949863946583,0.287283286618519,0.0162526546015014,1
379,4780,-0.0045124195990813,-0.3116271791981165,0.2851055602284651,-0.3155422917530797,1
380,4781,0.0224167949920699,-0.3186858137922778,0.3557740483339551,0.4196704101514384,1
381,4782,-0.0086452513592604,-0.2944889623321695,0.3109475381781937,-0.0021980408041824,1
382,4783,0.0026220428555835,-0.2695139150839378,0.2720798488772425,0.2537150777547658,1
383,4784,-0.0017402752836377,-0.2982662530378435,0.3973935767623292,0.1671844574818253,1
384,4785,0.006949248207381,-0.1601807405300406,0.1761020212010015,-0.1097409991393726,1
385,4786,-0.0126043702898154,-0.2509068188351934,0.2934362368663251,-0.0647932753699362,1
386,4787,-0.0436145933698081,-0.4220525307606652,0.3368623656305441,-0.0499487609077292,1
387,4788,-0.0212817126301169,-0.2790744814927745,0.3197943354903316,0.0865968118469453,1
388,4789,-0.0425130283115336,-0.4480284997348097,0.3725458930683286,-0.2424605705704828,1
389,4790,0.0049068957368347,-0.3065183026640582,0.304891498981283,-0.0698410587217005,1
390,4791,0.0011717604909262,-0.1942092773030522,0.1756402577278052,-0.2528219265747128,1
391,4792,-0.0110031991630934,-0.2343261610242012,0.2994688311320401,-0.2227247845091725,1
392,4793,-0.0182597909980617,-0.4115867201617192,0.372732790890133,-0.179553327854736,1
393,4794,0.0035651508469717,-0.1804717856083472,0.1820053095126484,-0.3117168014265419,1
394,4795,0.0004804378690055,-0.1419437753467681,0.1367007367510666,0.0150063266637414,1
395,4796,-0.0072791530870864,-0.304511975860835,0.2716925131910563,-0.2837317486292382,1
396,4797,0.0037712906853128,-0.1486009817799692,0.1481391672772286,-0.1857902750535328,1
397,4798,0.0015800387275448,-0.2686866250592925,0.2720941666999968,0.0024206271439715,1
398,4799,-0.0266303881923199,-0.2771155021369316,0.324260770596702,0.2757806718369388,1
399,4800,0.0062894554150588,-0.3119687483587449,0.3731699901803267,0.1620828142061692,1
400,4801,-0.0328542036461442,-1.1497163797604586,1.2727781274751628,0.1595108961322083,1
401,4802,0.0373318279671861,-1.0519481308995644,1.2381314059149986,0.2721823172668288,1
402,4803,0.0344781209168246,-1.6775030980126893,1.395267758821909,-0.3897069050730549,1
403,4804,0.0086887592701526,-1.850415462488804,2.587140517048075,0.8488086130059646,1
404,4805,0.022540046425303,-0.6330366169889942,0.5754593057006208,0.1830662269998457,1
405,4806,0.0204677819843123,-0.4984225470459882,0.512536247891179,-0.0189826903942471,1
406,4807,-0.0269419930420345,-0.7271036818654104,0.6305427752537147,-0.0637979862300198,1
407,4808,-0.105615786040557,-0.9847012649844904,1.1896302830927623,0.3358747572898875,1
408,4809,0.0882123857085512,-1.119188184796736,1.8475704791416585,0.9320855030108252,1
409,4810,-0.1099260789828997,-1.0990330321679564,0.8345169165459457,0.0033686223053603,1
410,4811,-0.1728256678128888,-1.0616782091400847,1.0015189006118486,0.4028080862876731,1
411,4812,0.0025376725578287,-0.4780096693595062,0.4644098830162221,-0.0024620011084128,1
412,4813,-0.0590039020182476,-0.8535107056893966,0.70236774336879,-0.0842129428888305,1
413,4814,-0.0924466460692227,-0.8000653362146658,0.6071550087269615,0.0831981184210187,1
414,4815,0.066407096338512,-0.7595455794811345,1.0936502123364955,0.5427276553557061,1
415,4816,0.0246240482653463,-0.6543970622196211,0.6330116653792369,0.0107512155100161,1
416,4817,-0.0157571513441722,-0.3765669881306253,0.2989850181685454,-0.2210190573768658,1
417,4818,0.0016708069549428,-0.2626156213141907,0.2291545530755043,-0.0829507884594198,1
418,4819,-0.0987328421281706,-0.8517436316694613,0.7236631312010614,0.1293757883285181,1
419,4820,0.0447904912632165,-0.7786886946045357,1.1903296468935534,0.545006982785179,1
420,4821,-0.0341803814448712,-1.05098901166274,1.10895766548733,0.2153904765721663,1
421,4822,-0.0018569754392607,-0.2931916863209552,0.3398722171628271,0.2379175159866004,1
422,4823,-0.0476631819275918,-0.7562208074418844,0.6494221672994269,-0.1628148321461359,1
423,4824,-0.1145098986614138,-0.7999112048014778,0.9605988769581064,0.4297631795729474,1
424,4825,0.0159064200591093,-0.6522112878893137,0.6087059098834589,-0.2729470690282171,1
425,4826,-0.0850609250290698,-0.8750898846812241,0.6690193109655227,-0.0180210139923144,1
426,4827,-0.0001479755915493,-0.2546858367905514,0.2351788046060708,-0.2443198237975377,1
427,4828,-0.035357216763421,-0.6789255679032364,0.5640708222715969,-0.134862571680636,1
428,4829,0.0007871819299421,-0.5781889923696228,0.4488594090843915,-0.3207174302934812,1
429,4830,0.037270338141712,-0.6211428473755637,0.8893132207179809,0.5154830827562156,1
430,4831,-0.0514325962969806,-0.8150373066076657,0.6606196425252725,-0.0766068268526029,1
431,4832,-0.1143992179312657,-0.856284525368352,0.7512000492933368,0.3006842723118683,1
432,4833,-0.0569345849614671,-0.7523490629507575,0.6229258796886146,-0.09434581737443,1
433,4834,0.0273535804783596,-0.4583495548325857,0.627007304411888,0.1966203883776391,1
434,4835,-0.075338478766517,-0.8535669743078328,0.684275053692755,-0.0619805005603526,1
435,4836,0.0091156079162365,-0.4753870282318271,0.5314947175462272,-0.1031908092017418,1
436,4837,-0.090974826945893,-1.114250242568557,1.35014916540475,0.3689614941034479,1
437,4838,0.1354152223829857,-0.8343517612974779,0.938867815557292,-0.1231855387295298,1
438,4839,0.0553236647193517,-0.9140270316547484,1.0652707788306108,-0.1440142781400258,1
439,4840,0.1799474493363484,-1.0076341393118289,1.017415948761347,-0.3636776583382754,1
440,4841,-0.334722757717643,-1.8191111679979108,1.3420602349377555,0.2046084801121652,1
441,4842,-0.011944815143807,-1.4307530696765367,1.086320587439486,-0.4554508321822249,1
442,4843,0.1024190218090909,-1.1678108896051411,1.7440934906925707,0.7188440978862125,1
443,4844,0.0082031068226972,-0.5962288234671482,0.6685703185990792,0.084900639300967,1
444,4845,0.0466570161107236,-0.9004260478549234,0.901440015147362,0.2013119191385648,1
445,4846,-0.1366254047133867,-1.2163292286106555,0.8779277316176274,0.0235222687398231,1
446,4847,0.0051267813221605,-0.6387196716219695,0.7695876589156027,0.0191807255225539,1
447,4848,0.0594849180564625,-0.9621408403104484,1.090358351914396,0.1421243132445716,1
448,4849,0.1027108674067466,-1.2948315411755762,1.2179790369497232,-0.3145185752357871,1
449,4850,0.0136963322468476,-1.628900410585745,1.4417928945828424,-0.0201911817675326,1
450,4851,-0.1389817407469034,-1.568439872930706,1.334716629754477,0.2067569322038487,1
451,4852,0.1157220839393818,-1.07569125269714,1.8554553147373816,1.1795983901314786,1
452,4853,0.0057190361536989,-0.616886089687456,0.5388710116639229,-0.1403158507223241,1
453,4854,0.0661277692298701,-0.8782705285428625,1.4779156702183247,0.6877462605161279,1
454,4855,-0.0047984020841518,-1.0351541044863488,0.8895601091323868,-0.2674132868330116,1
455,4856,-0.0912144895734327,-1.4465918381772729,1.5606158467852056,-0.0414125122527759,1
456,4857,-0.188750944539681,-1.9275006185815808,2.2196497033772733,0.2979983596336342,1
457,4858,-0.2817295601436775,-1.9503587093898016,1.502320006173597,0.073643830656577,1
458,4859,-0.2350230818576839,-2.1472791389027392,1.2454982057882449,-0.1885929834599784,1
459,4860,0.0490154073799616,-0.7687625850570399,0.8557843057233713,0.2001257719428691,1
460,4861,0.0439540820197851,-0.9347484762635148,1.0755743607762582,0.1141687385086343,1
461,4862,0.0237967152856793,-0.7626668989227579,0.8288697739777238,0.1152675500589926,1
462,4863,0.0104197806535778,-0.671755322329725,0.6083607119175767,-0.0965468819716808,1
463,4864,0.0106653265874404,-0.7929556412043912,0.9137240903665028,0.2848352143135323,1
464,4865,0.0375684315984943,-0.5167609385222777,0.5715943058556987,-0.2478442598873693,1
465,4866,0.0183653995138487,-0.9281860202018232,0.8823296918423625,-0.1893625709690776,1
466,4867,0.0050360619296471,-0.419629692356064,0.4586724913315767,0.1347202816417134,1
467,4868,0.0588865168784636,-0.55520195202966,0.777395090480036,0.2719114478617367,1
468,4869,-0.0033951032724228,-0.3647796201739156,0.3129975679112095,-0.1604461635326927,1
469,4870,-0.0007327144079051,-0.3172643080451837,0.3736870894685956,0.2603377931639263,1
470,4871,-0.0072324943225735,-0.6233894240933988,0.5492359821949114,-0.152028183048894,1
471,4872,0.07384491458552,-0.6585353228677929,1.0867490932257875,1.2870466559779477,1
472,4873,0.0495062800082793,-0.4370778621767685,0.4371136511838263,-0.0030553384549508,1
473,4874,0.0180210955042331,-0.7544279741915862,0.6342209380110272,-0.5654000844837417,1
474,4875,-0.0664346582945565,-0.7470073682498537,0.6119455566489768,-0.0113723574608857,1
475,4876,-0.0667876693440895,-0.7217886728736693,0.5609375343220495,0.0008070155354604,1
476,4877,0.0053151364023374,-0.3982856219029691,0.413720641174401,-0.0180154899760615,1
477,4878,0.0200683148394075,-0.4795423881754698,0.564436839195221,0.3511487788502403,1
478,4879,0.0162654847992921,-0.5321908711332771,0.5349083062147342,0.0749878567029102,1
479,4880,-0.0823587973801666,-0.8719447953784711,0.6544734766658953,0.0222880248592297,1
480,4881,0.0427325899101427,-0.5773918704763803,0.6764602857984678,0.428030280085249,1
481,4882,0.0029013229866946,-0.3409135121256432,0.3266956148167015,0.0466758789297209,1
482,4883,-0.004525667650528,-0.4074226398254941,0.3876615695235814,0.077536480083379,1
483,4884,0.0001216465757527,-0.3877453973534184,0.4112614783116358,0.1806590612367412,1
484,4885,0.0065298934560661,-0.4201923616791506,0.5668184138205097,0.3852795190187243,1
485,4886,0.0047380331373542,-0.4815250883211779,0.5260124153770795,0.0274720217424188,1
486,4887,-0.0044028124400239,-0.4987759795688435,0.4165941004358707,-0.0840974220332454,1
487,4888,0.0575406975459428,-0.5668114322941454,0.8584332155983565,0.9768477177396244,1
488,4889,0.0022336504875672,-0.2581981307507082,0.2795903493547519,0.0106276993138249,1
489,4890,0.0100191590336055,-0.3228399844643355,0.3582280994636617,0.2226108469345228,1
490,4891,-0.0036427734118545,-0.513166344900558,0.3533267048115683,-0.2161580930555109,1
491,4892,0.005939390430778,-0.2786249522374112,0.3079382100339245,0.1443364812869177,1
492,4893,-0.0002675656711876,-0.325425135436629,0.3845987712120734,0.2273054532870171,1
493,4894,0.0031507291106484,-0.4451078588203989,0.5052445201972845,0.3157400064840053,1
494,4895,-0.0068934360372606,-0.3949212478985938,0.3230612694467543,-0.5233739103567621,1
495,4896,0.0556231968805425,-0.573535339950958,0.8398824113407594,0.5770847092696216,1
496,4897,0.0042623207643274,-0.3059572916767379,0.3294578631763091,0.4346960374847015,1
497,4898,0.0089503557481503,-0.3249827287007729,0.313650161688832,0.2979213152171293,1
498,4899,0.0102751852691459,-0.4773829614408973,0.5225416363828455,0.0038394572640701,1
499,4900,0.0194363661601553,-0.4386569290302078,0.52395071194527,0.1982594868546424,1
500,4901,0.0136353144219884,-0.3138312880732944,0.4231263896410164,0.6685020362671256,1
501,4902,-0.0053414330739888,-0.6164130322946699,0.5916273172918984,-0.0595187633309117,1
502,4903,-0.1359232239658997,-2.48324094055815,1.3911570747006183,-0.8338614135650005,1
503,4904,-0.0009560976004582,-1.3554463073917753,1.4807957148985484,0.0306390571423628,1
504,4905,0.0002953165368881,-0.8151854142528375,0.7525925478211546,0.2081275591174572,1
505,4906,-0.0312298949500463,-1.1576867705006253,1.0830832868061877,-0.0342982659877324,1
506,4907,-0.0818844385982313,-1.562578922941274,1.7077759880190824,0.1602567595838197,1
507,4908,0.0351278551063789,-1.0026676314939806,1.2286728313366075,0.1620993834599737,1
508,4909,-0.0509973096846465,-0.9595104305124704,1.073975571834722,0.1190537604631707,1
509,4910,-0.0292360317301849,-1.633811224781152,1.481951088728222,0.0314069095263667,1
510,4911,-0.081088522162846,-1.7627663385205556,1.675283985673607,0.1558873250412343,1
511,4912,-0.0725606562507984,-1.6964996807266657,1.6166646549562005,0.1799445374835845,1
512,4913,-0.0181683816333501,-1.844128819547408,2.459543186590935,0.347399307489926,1
513,4914,-0.0857998580960378,-1.6596576921597448,1.6395699613034187,0.0326755891355567,1
514,4915,0.0061538159886222,-1.3252551253315217,1.2522639634405843,-0.0020011476481137,1
515,4916,-0.0693792047848628,-1.213720335231872,1.2745921987214628,0.1420039261253716,1
516,4917,-0.0669438377118682,-1.2815720876764276,1.2731494878423948,0.1728351555224737,1
517,4918,-0.1491051327891573,-2.088774908921356,1.4787850484026852,-0.1662593091780818,1
518,4919,-0.1214330268251183,-1.9759539382718516,1.0911898354178993,-0.6854512677479406,1
519,4920,-0.1261188700255758,-1.8909876899471905,0.9382472949747218,-0.896022848320784,1
520,4921,-0.0212384197571675,-1.5310572635468356,1.4376323297629383,-0.0105878380666059,1
521,4922,-0.0271337766051536,-1.5533890759518312,1.5233012081010786,-0.110665621388942,1
522,4923,-0.0244327232605568,-1.1693441114573342,1.16636429907994,-0.0701509390751058,1
523,4924,-0.0110405502853697,-1.190874553218701,1.107698226713984,-0.0458144455640875,1
524,4925,-0.0683551250045598,-1.6517348169562327,1.5511390154373668,0.011392318873485,1
525,4926,-0.0430278898933476,-1.4944153856063505,1.4106952023265953,-0.0628496746551287,1
526,4927,0.0016967034568609,-1.130771263477415,1.1350357400169109,-0.0426872750080911,1
527,4928,-0.0076640424736164,-0.2323650123514618,0.2766966706540104,0.1706564774604843,1
528,4929,0.0024428196826763,-0.2806662874157327,0.318074778052912,0.0712056843681418,1
529,4930,-0.0107044994302315,-0.6154152656604983,0.5466963842332608,-0.167715452806414,1
530,4931,-0.0017379085233043,-0.7468234453007133,0.5982915427511859,-0.1982383118854205,1
531,4932,-0.0048031647690224,-0.8291206367698392,0.7422860999396901,-0.1324030505354881,1
532,4933,0.0265758634324881,-0.7868046401381548,0.8055305247226276,-0.0629289526429622,1
533,4934,0.0034209639883883,-0.8890820973629612,0.8261509600099901,0.1343499909092083,1
534,4935,3.394733969154691e-05,-0.8398480259660444,0.7445603603472386,0.1155779617809006,1
535,4936,0.0131536776209254,-0.7496627272466121,0.6426904215758971,-0.0516917513039619,1
536,4937,-0.0063161834371968,-1.1877383038397422,1.1106891553668254,0.0745929284324163,1
537,4938,-0.0273589207576625,-1.2762775111722513,0.931002714215074,-0.3099817503680652,1
538,4939,0.0128035105986463,-0.8768981007030912,0.7250340298811584,-0.0420647906072841,1
539,4940,0.0134949430658963,-0.799762292470414,0.7917845744135925,-0.0959130261151929,1
540,4941,-0.0017443671201115,-0.8278224775236945,1.0145413244762178,0.2643850838290216,1
541,4942,-0.0122609315287179,-1.1716013661628857,1.122076997215002,0.1521985443179033,1
542,4943,0.1078525539993166,-1.1787776382375168,2.0531711771369805,0.4824414894223391,1
543,4944,-0.0117577778857121,-1.4839735061005483,1.427945530791097,-0.0950773853565669,1
544,4945,0.0363308152003004,-0.8073739188222508,0.801633212788073,-0.0331073388376319,1
545,4946,0.0146196987657569,-1.413325921196412,1.4048975080611776,-0.0058188711106442,1
546,4947,-0.0059214078031056,-0.8240025039568548,0.7143168660132224,-0.0784487495750302,1
547,4948,0.0244266598339087,-1.020695875097284,1.058832180352877,-0.1348304143456239,1
548,4949,-0.0242179673117315,-0.6936344558814962,0.5445427421762301,-0.1634667403679189,1
549,4950,0.0150431202452128,-0.6302477293551828,0.4671930349192351,-0.2340296208978124,1
550,4951,0.0032904366541682,-0.5046433373326344,0.4691196894929006,-0.137134204786506,1
551,4952,0.0324191812031411,-0.5622364479867168,0.5353488147594363,-0.1467051486303584,1
552,4953,-0.0269615493050917,-0.8914055719325168,0.905571915545285,0.0862628057768849,1
553,4954,-0.0004728767444082,-0.2363851161826458,0.3699600461669154,0.7189362800871579,1
554,4955,-0.0179542722195906,-0.7851397052130982,0.7960186758390286,0.0479144763622886,1
555,4956,0.0060044552904757,-0.7357436866070798,0.9274129875076768,0.1724696319548293,1
556,4957,-0.0189179479380402,-1.3331497324435142,1.196530627299679,0.0164701125465477,1
557,4958,-0.0426341053332489,-1.4935690936951258,1.3473134127613973,0.0927644522901564,1
558,4959,-0.0224665380595208,-1.33255116027272,1.4100246369356746,0.0558582441403723,1
559,4960,0.1739837655581793,-1.2973693225621472,2.441004579277884,1.053469451666532,1
560,4961,0.0054464435655024,-1.4343470661782465,1.42476472513445,-0.030635907335276,1
561,4962,-0.0526802522699179,-0.8305256703750226,0.6026842835825009,-0.0944447324616525,1
562,4963,-0.0089577479149536,-0.9544191709905342,0.9134947575248104,-0.0801594775456211,1
563,4964,-0.0376147236767012,-1.0645130214016791,1.0870816164308112,0.1601234963604252,1
564,4965,-0.0394729604734117,-1.0569041630330904,1.2086249691455082,0.184328193040367,1
565,4966,-0.0329428825272473,-1.497924394629491,1.405621714768141,-0.0066735135675411,1
566,4967,-0.0582457533665017,-1.4291553419958964,1.2997582161450267,0.1475568365277703,1
567,4968,-0.0160218857887849,-0.4379711922525753,0.3381019776329036,-0.2218043839835921,1
568,4969,-0.0018533239584621,-0.7419768446817001,0.9644779007771872,0.2626674843163046,1
569,4970,-4.596927531283721e-05,-0.7119897549539952,0.6907496405093569,-0.0485851430245099,1
570,4971,-0.0033114878427107,-0.7771011442827551,0.7443640809267187,-0.1110070569026408,1
571,4972,0.0198165988112992,-1.105435188955492,0.8449522468081211,-0.1968494378846602,1
572,4973,0.0275669359068317,-1.478868248665021,1.456687455996981,0.1015076001001449,1
573,4974,-0.1171384873667014,-1.4258067955161966,1.4035551715292356,0.1978141974560859,1
574,4975,-0.005231086460012,-0.8820207256352228,0.7733998697406688,-0.1361281545736177,1
575,4976,0.0170233303369912,-0.3963686464299067,0.426877188912023,0.1726857313331385,1
576,4977,-0.0287926673305238,-0.9314181512720644,0.9412801134063796,0.1189155602669114,1
577,4978,-0.0457335301147714,-1.3052505537974803,1.3619619605465714,0.0428172397440748,1
578,4979,-0.1142269014487177,-1.557107376291642,1.2531858220066303,-0.0709801072030675,1
579,4980,-0.1039362777239896,-1.5442208751043984,1.197766946256042,-0.1299365881756831,1
580,4981,-0.0002040996980224,-0.2947337606085345,0.2908293268173799,-0.0670201396877765,1
581,4982,-0.0130668277386029,-0.7990401372225767,0.6137761582592325,-0.3450212783884008,1
582,4983,-0.0108043656164102,-1.0386962950836232,1.031360537733856,0.0715395093527046,1
583,4984,-0.0025675035427776,-0.4159990913342626,0.4008811622908174,0.0487139875214555,1
584,4985,0.0024351973340818,-0.491367091074453,0.4987157245331878,0.0250572533083971,1
585,4986,0.0013344779886681,-0.6269138337512516,0.7959113382689553,0.1927391581864298,1
586,4987,-0.0979833758198267,-1.1945635738976892,0.8744560315263303,-0.2006153605977917,1
587,4988,-0.0007640798235034,-0.8782409134996098,0.8625396730860532,-0.0068020351600522,1
588,4989,-0.0043140829468715,-0.2061929089080117,0.2147716450228456,-0.0157021232027627,1
589,4990,-0.0125058559528213,-0.4776610698478838,0.5625362598687917,0.2638988634912938,1
590,4991,-0.0595499783493965,-1.212263656194288,1.2047463343306193,0.1412442403156066,1
591,4992,-0.0740051904955278,-1.0360785627448474,1.008645605612952,-0.1055597769063915,1
592,4993,-0.0169674805459962,-0.8232560218521743,0.8855412186478542,-0.0355000451705152,1
593,4994,0.0091189289073103,-1.286926189136392,1.5018749819357486,0.0645351853482951,1
594,4995,-0.0190265483301467,-1.4578259981999957,1.491618918362848,-0.0029259871090458,1
595,4996,-0.0317896951063122,-1.4646572074229118,1.4859633321751788,-0.0028865683475729,1
596,4997,-0.07647522128948,-1.4394962035393228,1.5058398300953804,0.093181771484664,1
597,4998,-0.0133465153288012,-0.5548367828635441,0.5851112880932561,0.0606887497684984,1
598,4999,0.0145504929015647,-0.5187124282624733,0.500952946213744,-0.0072063244997286,1
599,5000,-0.0375775696140068,-0.921398282291792,0.7422957770679111,-0.0224602244782442,1
600,5001,-0.0117199796578382,-0.2625987765651006,0.2407994954300683,0.096986898436518,1
601,5002,-0.0067448782440811,-0.2928573638443947,0.2591616112649929,0.02601251473064,1
602,5003,-0.0039506743208551,-0.1821522642307659,0.2334565537626666,0.1924209430151693,1
603,5004,-0.0096146719086617,-0.2738453183969158,0.3143904550556793,0.2011549313332599,1
604,5005,-0.0014261969321477,-0.2986229093301547,0.3288740160992871,0.4334243544264666,1
605,5006,0.0032770691796955,-0.2802074588201061,0.2560304259271362,0.1363318646689114,1
606,5007,-0.0058588005845285,-0.2046413181360773,0.1668411352849255,-0.3464160522981707,1
607,5008,-0.0071387098680267,-0.1378555747192453,0.1470726703326132,-0.0855095849271339,1
608,5009,-0.0043729102521641,-0.1304606167208236,0.1392755315834657,0.0438312867591654,1
609,5010,-0.0188308107896055,-0.3424202072492923,0.3016753723789287,0.064597654807343,1
610,5011,-0.0009370790031036,-0.1438414177126172,0.1819702349154713,0.0623257112841149,1
611,5012,0.0006220163284129,-0.1735863178199607,0.198760832531198,0.1985415443065404,1
612,5013,-0.0052853164441756,-0.1795392870126755,0.2237218924309471,0.41847745184091,1
613,5014,-0.0041440241352304,-0.1915068013509362,0.1953096518647004,0.3377300132672131,1
614,5015,-0.0021568076048164,-0.2344383232150147,0.2259550497859802,0.0419568043431968,1
615,5016,-0.0019802730166705,-0.2542148462998452,0.2296888317495136,0.2283356979814922,1
616,5017,-0.0023473076571938,-0.2044438142541772,0.1747255103033587,0.2088166560867943,1
617,5018,0.0012896599253999,-0.1751344755180775,0.1768798243366688,0.1109691850719066,1
618,5019,-0.0081642660231075,-0.174792103643099,0.2099771718008029,0.3689875273085828,1
619,5020,-0.0085201025141346,-0.1767835039360467,0.2072773202317667,0.1778227829696475,1
620,5021,-0.0046164008411014,-0.2581780074471025,0.2468847873371587,0.1143775906474237,1
621,5022,-0.0113811569981576,-0.2173870600164861,0.1726460285024469,0.0451051974301152,1
622,5023,-0.0016038185452892,-0.1217777570673509,0.116844530680619,0.0403035772989192,1
623,5024,-0.0039407167971131,-0.162797782393645,0.1678372633623272,-0.0115228088708497,1
624,5025,-0.0015006274112664,-0.1694758795295139,0.1770522989446863,-0.1134995812479529,1
625,5026,-0.0139270869741824,-0.2663994161207823,0.2490461779685912,0.0924429990030002,1
626,5027,-0.0061188407538345,-0.2087074639592624,0.2441504951321853,0.353368992193058,1
627,5028,-0.0099956540384083,-0.2416251540663275,0.2051412000986052,-0.6637430043911546,1
628,5029,-0.0046156498964486,-0.1740237281835136,0.1950025480568398,0.1519488827236946,1
629,5030,-0.0046768894613657,-0.2294063199974031,0.2335173929327075,0.1775705575522526,1
630,5031,-0.0062178612894322,-0.1326991084185175,0.1389137392717461,-0.1840298312509629,1
631,5032,-0.0053675939749937,-0.1441471236822573,0.1502609718063256,-0.0909445516917104,1
632,5033,0.0036581886259195,-0.2462698688231546,0.3477003722808995,0.7596049946863168,1
633,5034,0.0032083878570806,-0.2847906455793328,0.3640665440346253,0.648263589916132,1
634,5035,-0.0016298569034397,-0.1685661211495708,0.1940275261261781,0.5436905972725392,1
635,5036,-4.304789780244508e-06,-0.063938706141198,0.0753038414958812,0.0979180172582735,1
636,5037,-0.0081400999064269,-0.1788228227075979,0.1835809377649741,0.1116603599812326,1
637,5038,-0.0082545362205157,-0.1474774190738328,0.1865521649248105,0.2623116479813967,1
638,5039,-0.0073266572638751,-0.2414031224450718,0.2314525826523695,0.1448840744040672,1
639,5040,-0.0028463293261107,-0.2439685544353064,0.2531090635632111,0.2120004031671969,1
640,5041,-0.0055435945416168,-0.1323572325903476,0.1675765365553633,0.4121513047117972,1
641,5042,-0.0004886522893775,-0.1223251124275723,0.1179870330554697,-0.0670029635758741,1
642,5043,4.429033378448103e-06,-0.0910751699234269,0.0831678794218973,-0.1974279063782477,1
643,5044,-0.0029355800084195,-0.1329964686353693,0.1616043725383368,0.1607000721245346,1
644,5045,-0.0024366745698861,-0.1215963970445541,0.106537103638051,-0.3813720152965781,1
645,5046,-0.0103873698000965,-0.2049202655269848,0.24351184342614,0.3789108089306717,1
646,5047,-0.0010545310643736,-0.0797291674273358,0.0852810046907712,0.0310541543811345,1
647,5048,-0.0140978535288883,-0.2320276150547763,0.191609614277201,-0.0601368088029771,1
648,5049,0.000365514891177,-0.0577668291441264,0.0657992601424989,0.0054197493226061,1
649,5050,-0.0111337138545714,-0.1483612925682364,0.1717220019322675,0.0529368230598491,1
650,5051,-0.0043535327752978,-0.1699577756551709,0.1946642103146993,0.0968504684991968,1
651,5052,-0.0014264837396228,-0.0742199058560556,0.0896739194429653,-0.0162738899000125,1
652,5053,-0.0009338087015793,-0.2260266500979724,0.1978410969846205,-0.0027096784467143,1
653,5054,-0.0032966903943185,-0.1172861140615465,0.1235688084760788,-0.1899471772354802,1
654,5055,-0.000128862306098,-0.1753063035176704,0.2115579783974157,0.673716360174754,1
655,5056,-0.0112701612098597,-0.1820355204484018,0.1802409172602863,-0.0179958185576081,1
656,5057,-0.0033983953898811,-0.1385806662201251,0.1522673768481268,0.1814615330015627,1
657,5058,0.0020010433052505,-0.2161051144850903,0.2254466344759478,0.2601051039956723,1
658,5059,-0.000820243423868,-0.1298928307276673,0.1412183819118943,-0.1890756311480824,1
659,5060,-0.0011848375343406,-0.107073087496504,0.0938482559526985,-0.1140066266174756,1
660,5061,-0.0054854654008499,-0.1137030865251896,0.1177628497492025,-0.3677754046746589,1
661,5062,-0.0065558429624688,-0.1333454431520071,0.1503376469385713,0.0811039544046732,1
662,5063,-0.003927277523546,-0.2050459306051851,0.1846484083874373,0.2614968623758196,1
663,5064,-0.004788233392155,-0.176319738262268,0.1927451699109425,0.2776177669775659,1
664,5065,-0.0072949618576787,-0.1382844635786516,0.1697707267949454,0.4711572996723361,1
665,5066,-0.0051173427517618,-0.113216876270293,0.1191394665961946,0.0976108895671013,1
666,5067,-0.0038473134285408,-0.1821322229023502,0.1944358882023424,0.1984512147646947,1
667,5068,0.001462517133251,-0.2046240554156614,0.2174630747147197,0.1618904031523106,1
668,5069,-0.0092224217643467,-0.1809346536796934,0.1948669527522131,0.2216987501965427,1
669,5070,-0.006244740406772,-0.1506517794720727,0.1795094502038066,0.254805392251155,1
670,5071,-0.0090658916146253,-0.1940154326832841,0.2041539327263587,0.157167700852271,1
671,5072,0.0093907131213279,-0.2388899163484843,0.3024241202704961,0.6465390131143496,1
672,5073,-0.0014682648414075,-0.2068223596450301,0.188547942207872,0.0964184856621885,1
673,5074,-0.0164941493065172,-0.2256120024547687,0.1855551662783731,0.1295820751313603,1
674,5075,-0.008206752093161,-0.188634059185941,0.1909793605391498,0.0679051618917726,1
675,5076,-0.0018068597608046,-0.1281367470821611,0.1188220879417002,-0.4995795507864958,1
676,5077,-0.006875992350801,-0.1776709129773065,0.16991832359949,-0.110693188124008,1
677,5078,-0.0065685914434009,-0.1931221238497976,0.1331912754533409,-0.8997032237638679,1
678,5079,-0.0155884317031468,-0.198027931405496,0.1698477533629294,-0.7268035871368426,1
679,5080,-0.0142675685366561,-0.2453330473256389,0.1863888775187697,-0.3453590576112332,1
680,5081,-0.0004850001957938,-0.1227345325454513,0.1466620878321322,0.1049912916191995,1
681,5082,-0.0105336158268024,-0.1362387804925269,0.169471906440237,0.2645581150170025,1
682,5083,-0.0031166879887945,-0.1760795318048878,0.1684328339779315,0.2736801585346297,1
683,5084,0.0031947069336625,-0.1920853672141065,0.2057032486720367,0.0584705302448419,1
684,5085,-0.0089209521056084,-0.217632239887667,0.2177159167526762,0.1237586767588728,1
685,5086,-0.0043952573139926,-0.1936942853174788,0.154002173666802,-1.5005752027768675,1
686,5087,-0.0058284471674538,-0.1359367899236403,0.14394737758613,-0.5158192480693388,1
687,5088,-0.006348859597229,-0.1442589377058848,0.15224085160385,-0.1928735035225399,1
688,5089,-0.0087095329990638,-0.1162381631280083,0.1530117212037332,0.2451366584642338,1
689,5090,-0.0064517260969286,-0.1465340100946422,0.145662107294593,0.1187327395368136,1
690,5091,-0.0095754275945456,-0.1343391811900371,0.1455039398955259,0.1960753521231915,1
691,5092,0.0004804298571989,-0.0573143748871548,0.0632917352312127,0.0704352487653029,1
692,5093,-0.0029048733562961,-0.0962706699993466,0.1040018469352895,-0.3635685355698073,1
693,5094,-0.0019666032066277,-0.1733002751594327,0.1792963029635311,0.0620100803419445,1
694,5095,-0.0044667403851844,-0.1478821733653357,0.1307258663410446,-0.1177961570938707,1
695,5096,-0.0036679771788996,-0.1130254403005367,0.1126919975559104,-0.4160385667251325,1
696,5097,-0.0026762662600025,-0.1019916296352353,0.0945592772746539,-0.2755394496979925,1
697,5098,-7.197604565441211e-05,-0.0566597207528685,0.0579702162958924,0.0780294627500293,1
698,5099,-0.0046500015226306,-0.1444379540964478,0.1363373081077634,-0.4314792153844659,1
699,5100,-0.0044006634356683,-0.1703106464554754,0.1770444583605377,0.5428535506986063,1
700,5101,0.0599027415364751,-0.5953030437952052,1.019550117384627,0.610322793903027,1
701,5102,-0.0198838239127259,-0.9971933472053914,0.9249320969639604,0.0699312714270506,1
702,5103,-0.086379259074081,-1.2412013703715263,1.0784731616702987,0.0130252554252817,1
703,5104,0.0111737739520617,-0.3753235104818654,0.3782542500812064,0.0662783682981985,1
704,5105,0.012784874532227,-0.530277003905383,0.4405787565058439,0.0824895615429881,1
705,5106,0.0110012092592978,-0.557593606006876,0.5134328909121646,-0.0309677843507005,1
706,5107,0.0080424429258675,-0.8532816254616966,0.8899076191069865,-0.0177678123106534,1
707,5108,0.0414793631091239,-0.6029207134546521,1.1138087840640112,0.9279964828103268,1
708,5109,-0.0023072003095297,-0.390044932456541,0.4160030544824228,0.1872839698832546,1
709,5110,0.0038858063892117,-0.4168829822144144,0.4133817077875144,0.140180508507126,1
710,5111,-0.0714175393843767,-0.9089153806450638,0.95271929635331,0.2270596056567623,1
711,5112,-0.007924637483896,-0.868985986268503,0.5941987069923831,-0.4338811950559154,1
712,5113,0.0196330922557251,-0.6675728260162055,0.8155532723175336,0.2484112010646764,1
713,5114,-0.0069680611176493,-0.3107096696823352,0.409229374146821,0.3674950359517994,1
714,5115,-0.1839585364103192,-1.6848912839821208,0.973808620596578,-0.7518828452950683,1
715,5116,0.0133110788240401,-0.6008404760116284,0.6848848120836163,0.1918567191265215,1
716,5117,-0.0283617035705161,-1.4218966868538372,1.335376487048487,-0.5173930969013177,1
717,5118,-0.0642085798954874,-0.8833152274406024,0.8910236523046797,0.1762195471070429,1
718,5119,-0.0019473979335347,-0.5798411961545626,0.5618817057586178,-0.1672567840317827,1
719,5120,-0.0073823552256825,-0.952397641162037,0.7633365661104471,-0.5650479600045518,1
720,5121,0.0021527757600394,-0.2012671466610215,0.2154466452583947,0.2213675188773923,1
721,5122,0.0030507580365563,-0.2581257419891799,0.2882118710576052,0.6089369225480475,1
722,5123,-0.0193144561774642,-0.6167723716408171,0.6146078661655,0.1502253839312232,1
723,5124,-0.0006577058911764,-1.1352624714614437,1.682116533672493,0.4500731039458905,1
724,5125,0.0016967750949265,-0.3323701104835077,0.3667153330938015,0.2238994471851605,1
725,5126,0.0082616057290581,-0.2721764711341226,0.2706046570463546,0.1412353597364405,1
726,5127,-0.0076907642968781,-0.857939049936757,0.926936144516108,0.2076679338170184,1
727,5128,-1.5700750090805876e-05,-0.2788332086661607,0.331439005770623,0.3004649123116126,1
728,5129,-0.0079378198384632,-0.7055865126643974,0.6803985788377372,-0.0279297311429682,1
729,5130,-0.0040417517016784,-0.6497222291002065,0.5608885367265437,0.1920696167938469,1
730,5131,-0.0966473940848251,-1.346681279880506,1.195420744301654,0.0326794333401046,1
731,5132,-0.0738677658437427,-1.2084975011095835,0.7232656635953727,-0.4457027870151628,1
732,5133,-0.0070390656859965,-0.3729557383873095,0.4504224289952451,0.5145969526638675,1
733,5134,0.0036791475348866,-0.5584062631582045,0.6197125884639657,-0.016669317448818,1
734,5135,-0.0489657750756408,-1.2055339313739537,0.8444198035511747,-0.3552080383133448,1
735,5136,-0.1042158123528965,-1.2512100288301595,1.3106784613059823,0.1388046530344195,1
736,5137,-0.0250574167105919,-0.8609319755798281,0.712965045805225,-0.1943916152573489,1
737,5138,-0.0264372111864204,-0.7969481210564349,0.706758256756614,0.0433240454544481,1
738,5139,-0.0983030249895088,-1.411060436134779,1.3605582371380451,0.0984900349301442,1
739,5140,-0.0824436968956756,-1.1459814912376125,1.2259884498141052,0.0759070009875521,1
740,5141,-0.2164076253054468,-1.9466773201793508,1.3096885156580576,0.0296407883458212,1
741,5142,-0.0433515392351711,-1.0766620626373786,0.8910801916751665,-0.14577225301603,1
742,5143,0.0398372065306311,-0.8070763220445708,0.8078376871844969,-0.0625723042620814,1
743,5144,-0.0978470286196906,-1.2145202247102196,1.0882217312828375,-0.012746337513922,1
744,5145,0.0233223671984421,-0.6749312742268546,0.7512878988894575,0.2505213690389556,1
745,5146,-0.0405243788886885,-1.0104988130507828,0.7722506803788647,-0.1342707481032544,1
746,5147,-0.0047648708108282,-0.6914181807270259,0.6917683619899819,0.0876713642394444,1
747,5148,0.0130491184835904,-0.5474392156834395,0.5146631356774087,0.064015048622465,1
748,5149,-0.2282119471222029,-1.7389488548570595,1.1375527644342098,-0.0194217600715201,1
749,5150,0.063924526343536,-0.7139102868403281,1.2527676784277788,1.0405523281595015,1
750,5151,-0.0172266804823157,-0.5865148091984005,0.6146886144528396,0.0372616015234415,1
751,5152,-0.0055325424819947,-0.5048702717447113,0.5119067988629661,0.3157940411124323,1
752,5153,-0.0332577092064964,-1.0405152794296293,1.1657033265228756,0.1119632892291653,1
753,5154,-0.093599937945677,-1.421205492379296,1.3020974617100938,0.0539831940531875,1
754,5155,0.0251240094516199,-0.6666647903590397,0.6636010853562975,-0.1020645427189746,1
755,5156,0.0281452842543976,-0.813478620140961,0.780353842198797,-0.0655639918707114,1
756,5157,-0.0474864100602051,-0.9543610416941556,0.9913523851737692,0.1831482872863208,1
757,5158,-0.0336612295754813,-0.5636135807369415,0.6011162079602773,0.2653859139886923,1
758,5159,-0.0260165609223871,-0.4251921988864683,0.5376122663056837,0.0946966369151179,1
759,5160,0.0003433157736208,-0.385078927446694,0.3735001646533451,-0.0249939809727763,1
760,5161,-0.0642600092173376,-0.9846963366737996,1.065560525930625,0.1513281382610395,1
761,5162,-0.0690181926055661,-1.0439810677177697,1.0434869857905882,-0.1084037249975594,1
762,5163,-0.0208988217493175,-0.8118409025884661,0.6624731256080707,-0.0675875934604706,1
763,5164,0.0246935096744999,-0.7057375696579501,0.9854793111436236,1.0148111442036567,1
764,5165,0.0032665916329392,-0.2100457819004422,0.2126145494197496,0.4565334902735813,1
765,5166,0.0072018927316524,-0.4568291105178161,0.4039635342759419,-0.0142574740015898,1
766,5167,0.0087640304949605,-0.8728587217385414,1.0666114779296765,0.2051419706437717,1
767,5168,-0.0539471983730995,-0.994778569957626,1.0639109265590825,0.1273641280859657,1
768,5169,-0.0484433194727902,-1.000727266421776,1.0156040563060338,0.1098099830493189,1
769,5170,0.0055305494890534,-0.5776859017955971,0.5299106604449297,0.0280750916964846,1
770,5171,0.0005432149514209,-1.2499135144257716,1.2682226081886705,0.023975925608735,1
771,5172,-0.0166094838483472,-0.8725293534026095,0.7857035164215218,0.2524772861956391,1
772,5173,-0.0074096102382728,-0.2359688068771461,0.2868401286669729,0.0676443398138291,1
773,5174,0.0009811749543863,-0.25112853526989,0.3547667251648601,0.588626281433356,1
774,5175,-0.0008313992776295,-0.1470202583699996,0.1286096475773575,0.0132830721883906,1
775,5176,-0.0106419738562554,-1.0876372265296896,1.0704156332303345,-0.0299843419795733,1
776,5177,0.0201819167079713,-0.5900902886924244,0.517053959623544,-0.0725523832653526,1
777,5178,-0.0318968861793188,-0.9530637313278474,1.05307105613764,0.1083325093819865,1
778,5179,-0.0687349775897638,-1.2073588956391397,1.228697920749517,0.1193933800779554,1
779,5180,-0.0102009489111571,-0.7758697326247184,0.7711387310038889,-0.0860729927272127,1
780,5181,-0.0968182956142985,-1.1569536734859145,1.2102300322470256,0.1507934166941558,1
781,5182,0.0161666560598333,-0.5433743186301777,0.5406351166300849,0.0460403887408632,1
782,5183,-0.0778255248637271,-1.125331052684718,1.1244169752433244,0.076237817805823,1
783,5184,0.0487860722497029,-0.7371197754836301,0.9670640555978391,0.7500958425975247,1
784,5185,-0.0927600239073538,-1.0882921473397884,0.9835502971298222,0.0666491745623353,1
785,5186,0.0040713885156349,-0.564884151133733,0.4842092577188714,-0.1592163918383554,1
786,5187,0.0083217768409665,-0.4405445810829004,0.4679488860015923,0.1540338369632038,1
787,5188,-0.1761027493680003,-1.6641749780892308,1.0261597031522087,-0.2798036098911765,1
788,5189,0.0466625758409701,-1.1525956720223691,1.748783294366432,0.3294165920799417,1
789,5190,0.0368564023523795,-0.5607712801739106,0.5750436023950198,-0.0898629862357283,1
790,5191,-0.014713868229227,-0.6022942146511325,0.6520915645150753,0.1427912139280663,1
791,5192,-0.0113929262678947,-0.8263747771072002,0.7626719518585723,0.0313663998602602,1
792,5193,-0.0048195890215482,-0.5131906831448946,0.5590943997146478,0.2499382508881855,1
793,5194,-0.1115695680460908,-1.3284188727327442,1.3181897939641165,0.151923847036506,1
794,5195,-0.0193497463428938,-1.0927379072181682,0.8962417160101241,-0.2159393540550107,1
795,5196,0.014016778672588,-0.6366376063916348,0.6399193254734712,-0.0701412396563472,1
796,5197,0.0151402418484221,-1.1275326700179542,1.1392065249073164,0.010064310832503,1
797,5198,0.0605278589253348,-0.972962659394204,1.6258547239651011,1.069521262524872,1
798,5199,-0.0852920484953849,-1.36603680534576,0.9392492870853276,-0.2062739984660853,1
799,5200,-0.0416842955419794,-1.467401878823682,1.2049008819298686,-0.0569130487623097,1
800,5201,-0.1928526479989031,-2.3384418461120777,2.0952938860132537,0.0578740999044536,1
801,5202,-0.2209798798103311,-2.568151662037388,2.2747448058933903,-0.0974801703340515,1
802,5203,-0.769033019113663,-2.8320312697161443,2.819668811657309,0.6215571157393294,1
803,5204,-0.3435012052110957,-3.147595241483982,3.1572377113730545,0.1793080407837453,1
804,5205,-0.4216340450546899,-3.364337591972175,3.294423677814697,0.0919468446386751,1
805,5206,-0.4315034883134758,-3.1016740736398214,3.0828966825885846,0.0829435216210065,1
806,5207,-0.4185922017905084,-3.147819389721789,3.1406575568043293,0.2460467936512675,1
807,5208,-0.6020529650348494,-2.7617179998126966,2.7752731937099684,0.5071516092662764,1
808,5209,-0.6051793145172772,-3.115451511395521,3.121108026777782,0.4520578773833024,1
809,5210,-0.3363502520313133,-2.9194617976113104,2.9114973354925384,0.2456771582555851,1
810,5211,-0.4978666530187086,-2.9297145520546666,2.9268882548045614,0.3280711163524266,1
811,5212,-0.4759336081751394,-3.054563189821674,3.009344838301716,0.1392564528821006,1
812,5213,-0.5771956729920859,-2.8719513768248213,2.8892247070886863,0.4640994645654248,1
813,5214,-0.3847908425551263,-3.100820844711676,3.1025433508614384,0.20986336364844,1
814,5215,-0.6356868907516995,-2.9912331345628558,3.0175317927862557,0.4686356562586328,1
815,5216,-0.7543924026810741,-2.980736101469917,3.014286814891215,0.6339808070999493,1
816,5217,-0.5362710607740936,-3.052614916659873,3.080145185486,0.5180146948598706,1
817,5218,-0.5599993666876274,-3.463561305435792,3.4709402691437106,0.3371029477580824,1
818,5219,-0.1024359732465592,-1.9210158140045817,1.325037099649784,-0.5848214200151326,1
819,5220,0.0228746263590158,-0.3908351604629309,0.5022742311986543,1.011765558811712,1
820,5221,-0.1835433805179987,-1.855238548687804,1.1748388835288577,-0.4260539569439498,1
821,5222,-0.0083637629449128,-0.610340981969625,0.6308845516236823,0.1418723670500103,1
822,5223,0.0417020911523142,-0.8865622044196411,1.009577854383069,0.1897441199250332,1
823,5224,-0.0101916408888239,-0.3631652867984656,0.3895437477088324,-0.0084920965277948,1
824,5225,-0.0886319117909365,-1.1574763630465938,0.7353806665747045,-1.2358263926774724,1
825,5226,0.0148225003532308,-0.5591913131728177,0.6540579376676673,0.5187168052463946,1
826,5227,-0.0613739721587794,-1.0257792204135514,0.9433511760655224,0.0449723642091503,1
827,5228,-0.2053333788715413,-2.165583480147545,2.1264663852691177,-0.2465750179360781,1
828,5229,-0.2957194004721916,-2.4215994828000884,2.4797001991034318,0.272264232712498,1
829,5230,-0.2109031056028785,-1.517415792283825,1.4353109403378783,0.1525518120263597,1
830,5231,-0.4079971067198317,-1.7641914965971708,1.7638760224509462,0.5452324802290818,1
831,5232,-0.3108336508625689,-1.846958815704436,1.836282208923166,0.3944719384233537,1
832,5233,-0.3776765696897155,-2.413928498729275,2.401889607830232,0.4309064710147167,1
833,5234,-0.5437249898303039,-2.762983989854209,2.7733720158724524,0.5039847970156037,1
834,5235,-0.5825987816680268,-2.738537075670882,2.661121568326486,0.5021935250684366,1
835,5236,-0.4904881227713256,-3.294893324311968,3.201174084798556,0.1820567422140138,1
836,5237,-0.427873604849724,-2.620806305446915,2.6202851515386585,0.3914418294983235,1
837,5238,-0.3966912066237474,-2.856817796612924,2.9512442933529206,0.3199246738344188,1
838,5239,-0.4605662488449665,-3.0808156006404843,2.437826423729936,0.0664425453671219,1
839,5240,-0.6039405249216636,-2.6969896651261864,2.6836673735612777,0.5529144744621377,1
840,5241,-0.3803389521659039,-2.004938297489192,1.961793615961878,0.4777953986176978,1
841,5242,-0.4046670524411035,-2.746467853569345,2.4778948970769514,0.1139657468945813,1
842,5243,-0.4340163892369827,-2.6670104134759667,2.744827259874132,0.3531832558448534,1
843,5244,-0.4893602979719714,-2.3155187706836147,2.30131224711566,0.4961195906251656,1
844,5245,-0.34458738063187,-2.3461872082887263,2.379503484292565,0.4083551585354978,1
845,5246,-0.5493467621749265,-3.0709584087912893,3.0604945474715537,0.4316412476483557,1
846,5247,-0.4268529004314365,-2.686591506720358,2.683905414671691,0.3550046610435006,1
847,5248,-0.4310642930003008,-2.5186575097538144,2.49733806122188,0.3742553224124937,1
848,5249,-0.3182743508166972,-2.631109885977514,2.429519860276581,0.2087213554880992,1
849,5250,-0.5676946234573886,-2.7886261308488542,2.817616338688029,0.4631970287127547,1
850,5251,-0.3026173150137938,-2.947510720833645,2.949316600255284,0.1966671804916756,1
851,5252,-0.5153994139601504,-3.129157416300579,3.138897362943439,0.3709879604703778,1
852,5253,-0.850475996212074,-6.175375679720958,3.8216268258105215,-0.1724786841361779,1
853,5254,-0.4618412760106778,-3.636501467124946,3.6346852416330666,0.2598960385435652,1
854,5255,-0.1241050171722117,-3.304590375317507,3.431948659706136,-0.0202740539517401,1
855,5256,-0.4741777130696125,-3.007027445806357,2.994732680177939,0.3113786638582685,1
856,5257,-0.4377096242470715,-2.57006774104867,2.5620357968718084,0.3202550398386988,1
857,5258,-0.6172913572182938,-2.87602531863582,2.929488586819671,0.560346115219769,1
858,5259,-0.1650039265907905,-2.126442442000344,2.161033756540823,0.2328988683547029,1
859,5260,-0.4138239975425805,-2.371874522956607,2.341888214691047,0.4175124619442291,1
860,5261,-0.4251752132847077,-2.661760271822419,2.6063674358648905,0.3593110990236511,1
861,5262,-0.2288008180843307,-2.5816470071399364,2.669797114245428,0.1285099189799904,1
862,5263,-0.349053107605574,-2.2780430709965547,2.2550889135181493,0.3779096000098991,1
863,5264,-0.2904839732439442,-1.805167056031185,1.817978892739963,0.3201189050387736,1
864,5265,-0.3279566416449331,-2.9613012119803463,2.7995215682967096,0.0156883332848886,1
865,5266,-0.4960754081208161,-2.996802843639005,2.6143726474451663,0.2602790882886701,1
866,5267,-0.3117084496331077,-3.076179504965627,1.6560446367800044,-0.6939830823443586,1
867,5268,-0.5498027317989068,-2.833495626084817,2.8150097882169662,0.4508540204395563,1
868,5269,-0.27949758116102,-2.3911427656217152,2.3716872321843376,0.1838347679706216,1
869,5270,-0.3264417234284568,-3.4745554530805487,1.96541930400175,-0.9159507629018644,1
870,5271,0.001794217977606,-1.7472301143279734,1.8036143430924427,0.1105682901756157,1
871,5272,-0.5016431262439126,-3.1916403088316057,3.242357403677757,0.3717381991777735,1
872,5273,-0.4534595387870568,-3.661863568371068,3.729764558861259,0.2975453547807307,1
873,5274,-0.3461445446780386,-3.602472596342001,3.6187890040192174,0.1336048391223809,1
874,5275,-0.5901564141893997,-3.4469277212905185,3.391067935425445,0.2325079653521372,1
875,5276,-0.1844252757733995,-2.489709412687388,2.159776314852303,-0.6573628830305821,1
876,5277,-0.4410219601867833,-2.1679873810077512,2.134040331045176,0.4791864251989512,1
877,5278,-0.3174848151787571,-2.709270916810887,2.7141307133121204,0.2358701076778785,1
878,5279,-0.3572974146183707,-2.502503858617879,2.499469052657417,0.3344534917290784,1
879,5280,-0.4606033947038082,-2.321058233306907,2.323903149470623,0.4213580800186437,1
880,5281,-0.327614374184364,-2.331705533858571,2.360250918058525,0.3054720058165841,1
881,5282,-0.6022265041374548,-3.727052607300205,2.2439608341018573,-0.2736887271157564,1
882,5283,-0.5859132050134813,-2.8034619630455824,2.836043578905211,0.4848791032905937,1
883,5284,-0.4398758055991543,-3.251556559942589,3.2659145794548854,0.2868333502405122,1
884,5285,-0.3501871856771665,-2.860465366061854,2.868578709919448,0.2963590310999938,1
885,5286,-0.3672511369322302,-4.360385173146115,3.752744487214088,-0.319241198977245,1
886,5287,-0.680678326623994,-2.814253001577732,2.891895798683409,0.5908990189998192,1
887,5288,-0.6466728105825507,-3.1150321265410126,2.981788812791958,0.4527009638130909,1
888,5289,-0.4256270114980217,-3.5371187687787837,3.528427475307316,0.1077835544080114,1
889,5290,-0.541368813119388,-3.621219937119762,3.6171796456195056,0.3330479604317241,1
890,5291,0.0243072394863141,-1.657222525221174,1.5474653578902715,-0.1276102962544336,1
891,5292,0.0028540921500881,-1.8643253489931428,1.9866101766170232,0.1329029616252249,1
892,5293,-0.5241489139959521,-3.0987822991444904,3.115221332982286,0.3542730634117798,1
893,5294,-0.577040864710769,-3.201554829786057,3.202146794479159,0.3543831857655359,1
894,5295,-0.3900305217926689,-3.403584371897272,3.587143371241923,0.208932715209609,1
895,5296,-0.6800903521984102,-3.5699711191593595,3.561349478765132,0.4242364556745508,1
896,5297,-0.5896020847938268,-4.517749701013621,4.370655279723256,0.0985897498694261,1
897,5298,-0.5153899159874923,-4.595845008467911,3.638096959830592,0.0937876677093734,1
898,5299,-0.3752195958680321,-3.989984383491732,4.130525932998765,-0.0667113285482502,1
899,5300,-0.3353408020690589,-2.13569463520134,2.1615551208865376,0.2509871497818828,1
900,5301,-0.0949387548553974,-1.751713538361662,1.4663349262023844,0.0431725022962985,1
901,5302,-0.0817229013905547,-1.494729967491318,1.5593535054504473,0.1066416734472805,1
902,5303,-0.1051716494859346,-1.9696844308109236,1.5778367306953978,0.0870364568607977,1
903,5304,-0.1610869983553967,-2.120476841039354,1.6456930467094857,-0.0254544221693766,1
904,5305,-0.2024556194187693,-2.050391600975865,1.662884013213554,0.0314526238697654,1
905,5306,-0.1328410897116107,-1.5409843571730195,1.6200293462966844,0.1976941280462025,1
906,5307,-0.1021620332108788,-1.399765263054721,1.5751849696350302,0.1594039980529528,1
907,5308,-0.1202265627622703,-1.4489556003538129,1.377846097373475,0.046009940937015,1
908,5309,-0.1007039256468085,-1.7639859484091382,1.4224047387131078,0.017523539509363,1
909,5310,-0.2129204816593491,-1.8470492330263677,1.5134849021598051,-0.0120018382058925,1
910,5311,-0.0613428280189315,-1.6463770521115588,1.7078633472940612,0.152150969365555,1
911,5312,-0.1244408227495088,-1.5562978738098616,1.4882382580662403,0.0828035917224527,1
912,5313,-0.0280855275817873,-2.241613294640969,3.2854908960099123,0.6042558965638554,1
913,5314,-0.1428494503687299,-2.0593745434476647,1.5578768813845012,-0.1104816835882986,1
914,5315,-0.1843685157448749,-2.0555958507185075,1.8465135648486397,0.055183687133815,1
915,5316,-0.0965974399361966,-1.3736119944965657,1.466394093795857,0.129945584995586,1
916,5317,-0.1065931647477691,-1.9532941232845515,1.5948906522438873,0.0395623698355048,1
917,5318,-0.1793213298802305,-2.1674121769795107,2.0098626563259243,0.0509815566594563,1
918,5319,-0.087084542570345,-1.5200958989425777,1.5752779476531715,0.0698810080648853,1
919,5320,-0.1980823845806325,-2.283301792333277,1.851844856982733,0.0399632295108732,1
920,5321,-0.0707061699150549,-1.89279223183072,2.1434832781626736,0.1538271131278278,1
921,5322,-0.1429181693621277,-1.9241011910805224,1.885925756677019,0.0672283548385587,1
922,5323,-0.1633505445363295,-2.404431345727536,1.9392372148911368,-0.0654962631715564,1
923,5324,-0.2456113100191694,-2.5354783785761232,2.247580780646481,0.068736643213377,1
924,5325,-0.0996695750957394,-1.9856466673930877,2.143421293728802,0.122326499397963,1
925,5326,-0.0330390037498936,-1.667410147730101,2.018497814635331,0.155569687180969,1
926,5327,-0.1986531570435458,-2.693310076309996,2.078016470537321,-0.0725792262314763,1
927,5328,-0.0933566328339669,-2.005476947862123,1.9801297696005544,0.1121935284308559,1
928,5329,-0.211956035987218,-2.5844876666793875,2.0363241393830225,0.022091141326606,1
929,5330,-0.3096301115948164,-2.660374356320128,2.239878153508686,0.0106896619690492,1
930,5331,-0.1386914976079352,-2.2640167146736525,2.250930050393237,0.1647081091002888,1
931,5332,-0.1318906956749836,-1.9638839561437236,1.940193233816348,0.087809674276819,1
932,5333,-0.1427634255462906,-2.349098689120919,1.8767488859462584,-0.0533796071570728,1
933,5334,-0.1581382325187913,-2.617564886531764,2.0544418426118454,-0.056261287510172,1
934,5335,-0.3007431289068871,-2.578591116516993,2.063860980615697,-0.0857322922264225,1
935,5336,-0.2694408504443966,-2.435497673182401,1.949494306003228,0.0855173322005352,1
936,5337,-0.0659331268428862,-2.1051813664057653,2.3551013730656214,0.14438666962018,1
937,5338,-0.0960297791430171,-1.7337470126000865,1.882561608171038,0.0687346589989177,1
938,5339,-0.1739564167136935,-2.705143764961611,2.1829376817009902,0.0599527086338984,1
939,5340,-0.3118996950257184,-2.8111440845397557,2.383207034952386,0.0643208052432739,1
940,5341,-0.178125696490439,-2.167570638524123,2.129098252225492,0.1227944291724712,1
941,5342,-0.0426695515796593,-1.835962091866388,1.9288435487942184,0.0245934419352676,1
942,5343,-0.1535002334200383,-2.8031545488262264,2.2069447955220927,0.0624410106408898,1
943,5344,-0.2325127649357471,-2.8815883871444434,2.195043702517852,-0.068460574161184,1
944,5345,-0.3185123562409862,-2.827480414012415,2.177752834536741,0.0704443814988627,1
945,5346,-0.2788157663098514,-2.848787175716353,2.4101043427278785,0.0701432956479181,1
946,5347,-0.1774778410385504,-2.113335752755473,2.19147520358838,0.1535376303766971,1
947,5348,-0.1044447084439952,-2.070181705187003,2.033215449462692,0.028211786605857,1
948,5349,-0.1307299488202525,-2.236405940558384,2.20627756396115,0.1099467934304483,1
949,5350,-0.2082017800118828,-2.877043037793056,2.3187896511518917,-0.0270204018715942,1
950,5351,-0.3734888973282079,-2.9721018655020224,2.3761465044878083,0.0017348059932883,1
951,5352,-0.1922003712272158,-2.9280409976841977,2.3221421791994734,-0.0674701239429321,1
952,5353,-0.2025455796746151,-3.0077584342840678,2.4144032590508577,-0.0522916861280654,1
953,5354,-0.1966177032548316,-3.0310225484041453,2.353053058028051,-0.0900599391307958,1
954,5355,-0.0753323871496606,-1.8739390101034707,2.043243280987868,0.1916476632762837,1
955,5356,-0.0951099495807924,-1.990513620513288,1.9530887956317575,0.0903537867805048,1
956,5357,-0.1160168603951087,-2.0178898703469472,1.994309443516656,0.1073813534425966,1
957,5358,-0.1017534906717278,-2.503773734465689,2.1029915632639797,0.0179679700709561,1
958,5359,-0.1375922324277289,-1.8654327912768625,1.8444820208748776,0.10537054826214,1
959,5360,-0.2461049125474594,-2.379121719301624,1.9784194897893783,0.0603860132609624,1
960,5361,-0.2295988873726289,-2.09878679705827,2.0814452291456784,0.1815844005598271,1
961,5362,-0.1548195673343028,-2.222650232718426,2.143123266534171,0.0879426682329152,1
962,5363,-0.2085913603992419,-2.859408338665615,2.25193296854049,-0.0575313344862862,1
963,5364,-0.390976270185194,-3.1281354044029293,2.493420818886826,-0.050189618148698,1
964,5365,-0.2732907887886424,-2.9219642222609563,2.5395362063719498,0.0433868095748314,1
965,5366,-0.1228421031659106,-2.1479491348870763,2.370854319642606,0.1150652726843551,1
966,5367,-0.1323782969193712,-2.1857654979697,2.5665878162708013,0.1648664392772695,1
967,5368,-0.1800893069091935,-2.3224193832681257,2.2115548188901544,0.1158161874303297,1
968,5369,-0.117273114340764,-2.19325107663333,2.140241830762032,0.0826401900766811,1
969,5370,-0.0589421387220486,-2.6116068553410154,2.4590944253732623,0.150695574590887,1
970,5371,-0.0957560374625645,-2.131513088371837,2.4143340582926798,0.1748588543666856,1
971,5372,-0.0885921908125526,-2.058757148793317,2.419257894569626,0.1812202284881559,1
972,5373,-0.1176097462584408,-2.2031562369277258,2.585310641177608,0.1839921829636626,1
973,5374,-0.1452968654233426,-2.3066554712200915,2.7918252358427256,0.2056040506885954,1
974,5375,-0.1361041940040198,-2.2837685014416884,2.403172179295377,0.0362539049856662,1
975,5376,-0.1510120818478568,-2.783478418549472,2.443930574410829,0.1407660417400364,1
976,5377,-0.3775544943797371,-3.26902419378088,2.607586980187256,-0.0381113850683912,1
977,5378,-0.0692014078195845,-2.532852269734564,2.6870126872743807,0.1262558980527012,1
978,5379,-0.2177425284058403,-2.3346151882336894,2.6225469569871884,0.2052391090828605,1
979,5380,-0.1644481431712849,-2.4141534516574703,2.3798774940307443,0.0521575516812879,1
980,5381,-0.3428107179267565,-3.1561841532848067,2.558286030305969,-0.0168886038129649,1
981,5382,-0.1298140718456533,-2.544991002019372,2.806535809821871,0.1350595590407432,1
982,5383,-0.1849873997930169,-2.4148324024206627,2.2567303606391227,0.1350662603544198,1
983,5384,-0.1322820305209731,-2.1236965982767715,2.2058558720674326,0.0927927318588418,1
984,5385,-0.1562139703944311,-2.7327172033456018,2.141839181078333,-0.0825974571080354,1
985,5386,-0.1051748673156838,-2.6407841675973085,2.0975745788385822,-0.3181788500333987,1
986,5387,-0.1115332829855407,-2.0927631336177104,1.4857802611502762,-0.2416812678354357,1
987,5388,-0.0438090038995086,-1.361316893105018,1.553777141461666,0.1845378932901559,1
988,5389,-0.1006924275807431,-1.961645924315155,1.647569389401382,0.0099625923141119,1
989,5390,-0.0592385442989872,-1.9429691598748668,1.6259642703191082,0.0940018104212218,1
990,5391,-0.0565066248539766,-1.6845306590015552,2.016703812074415,0.1784930074300369,1
991,5392,-0.1439080604027256,-2.002805745264085,2.155170737162764,0.1506244237722146,1
992,5393,-0.1412321120337343,-2.2583786603708784,2.248859109256655,0.1198191790242749,1
993,5394,-0.1201532449505386,-3.0101713916724027,2.345357778439654,0.0383693164166873,1
994,5395,-0.1396239614411217,-2.696739978289404,2.2044995303241643,0.0448378032891255,1
995,5396,-0.1131192972606642,-2.724372106309433,2.195435027321855,0.1205346810550838,1
996,5397,-0.0954080559826184,-2.823890003986301,2.4300541950686325,0.1452671960315711,1
997,5398,-0.0608860806777193,-1.9391502257233,2.132772016376576,0.0578017494582629,1
998,5399,-0.1135216688512343,-3.1228108083040285,2.396903327250808,0.1098136091035573,1
999,5400,-0.1192478575033484,-3.213800747557672,2.5201434235539297,-0.0492050388735505,1
1000,5401,-0.1532503446334903,-2.4278390402200056,2.1788148757252888,-0.1054607857255078,1
1001,5402,-0.0104123335167619,-1.6339782368343188,1.5680466697143216,-0.0135331921513083,1
1002,5403,-0.0630863871677602,-1.8771403780792268,1.984495685857218,0.1679597741360358,1
1003,5404,-0.1878953567240892,-2.71505257875497,2.2233242607938566,-0.0283264188134694,1
1004,5405,-0.0746225945337373,-2.2863861486649117,2.2131814106562038,0.0612823927249258,1
1005,5406,-0.1417471317945264,-2.439284211948776,2.1309118553031112,0.0772153501481287,1
1006,5407,-0.1205601004863069,-2.40832125652116,2.4094310018284766,0.0950545485711146,1
1007,5408,-0.164122719882095,-2.518056376600658,2.5734317733801504,0.1124449785043327,1
1008,5409,-0.0567724639864715,-2.5058070771985244,2.303516297540324,-0.0670611159448759,1
1009,5410,-0.1759909840017624,-2.556233043557543,2.570467497905363,0.0910953582367017,1
1010,5411,-0.2125186430018281,-3.207523291776668,2.651468485945024,-0.0298497826764836,1
1011,5412,-0.0230848756808549,-1.891405968899888,1.892032194624035,0.1001836569458566,1
1012,5413,-0.0115150687533091,-1.7508081649424327,1.660180909987337,-0.0269651946804403,1
1013,5414,0.0120024136195905,-2.055779271918113,1.8849418795001127,-0.0535427031251473,1
1014,5415,-0.26420152106349,-2.475487508737781,2.095561207169835,0.1160233494757112,1
1015,5416,-0.0810500707593093,-2.085307445167814,2.053319499587194,0.0467126741914782,1
1016,5417,-0.271960759508514,-2.5472069650127924,2.1849717424518915,0.0364285821004505,1
1017,5418,-0.2558352087779984,-2.9296169303938635,2.594927230275358,0.2353363739879736,1
1018,5419,-0.1594205938591083,-2.903680688202204,2.551241611510246,0.0224701274068835,1
1019,5420,-0.2427541925221083,-2.692458538569234,2.316651135641263,0.1311806650605726,1
1020,5421,-0.2265925664380823,-2.831633696139164,2.8379234415876304,0.0409135382619868,1
1021,5422,-0.0135008359300833,-2.027704121869061,2.157909360078156,0.0454499870809045,1
1022,5423,-0.0978773767078766,-2.3623570781187464,2.18683644600389,0.0220812106336048,1
1023,5424,-0.0984348709852045,-2.0931962545959,2.033216380661393,0.0501040242641624,1
1024,5425,-0.2502825753127685,-2.6325826458667514,2.2534723665827165,0.0582571150683196,1
1025,5426,-0.3526895898969244,-2.7530849069987053,2.2959123879612022,0.014511456226349,1
1026,5427,-0.512171811864736,-2.737356087721432,2.4249894873907096,0.234560973165119,1
1027,5428,-0.0702293871103258,-2.3299767058442304,2.1879551343007213,0.0212196764512815,1
1028,5429,-0.1531143263366395,-3.4541941277301818,3.2338007252424887,-0.2134079906566024,1
1029,5430,0.0339937650790519,-1.6710028533204402,1.6181960774458004,-0.0045247990102751,1
1030,5431,-0.1832556424271879,-2.6006375341318284,2.062866582399402,-0.2049074402222823,1
1031,5432,-0.2013992920052436,-3.35193955075308,2.141875158468962,-0.4240011413307288,1
1032,5433,-0.1429214125847973,-2.915983558315149,1.9989409562150628,-0.1296005263991867,1
1033,5434,0.0179069812338475,-1.539042644807798,1.778824388563213,0.0345335540810912,1
1034,5435,-0.0561591131842721,-2.054858384721965,1.82561665871144,-0.0040990364652651,1
1035,5436,-0.1848588839558364,-1.9624235309267928,1.6937609976563706,0.0805229974478128,1
1036,5437,-0.1365504151013447,-2.3666410797892263,1.8143935583064663,-0.2127323281998699,1
1037,5438,-0.035333389358301,-1.496054622793499,1.6179937487368106,0.0907598111964409,1
1038,5439,-0.0343256178347339,-1.7047572371038469,1.5763989387032344,-0.0458696726342018,1
1039,5440,-0.0015452190570007,-1.2197704064055097,1.130300619664617,-0.1354997893328427,1
1040,5441,-0.0289891574963629,-1.3021599760262357,1.3361336123581584,0.0608830115214373,1
1041,5442,-0.0390299366181071,-1.6819701446234123,1.70404721167078,0.005589618054708,1
1042,5443,0.0312474961193167,-1.4023995881380231,1.3959782852843796,-0.1179955302853118,1
1043,5444,0.0599107271615335,-1.398266909938807,1.363087728338182,-0.1580805221938729,1
1044,5445,-0.2542848233025315,-2.0181632686068283,1.8254990115365128,0.1991810012249178,1
1045,5446,-0.0336841343916099,-1.5482619702952471,1.6904894677869755,0.0836987189341581,1
1046,5447,-0.0995040232480584,-1.353026520708766,1.3623551111257557,0.1340084311067565,1
1047,5448,-0.0469179169385922,-1.6462331471101717,1.6346654452497589,0.0905626445500549,1
1048,5449,-0.0782559159609334,-1.5560654169303447,1.6152994676773011,0.0634321286116863,1
1049,5450,-0.1518250661618057,-1.843080170501043,1.6289996048924178,0.264900389109045,1
1050,5451,-0.0700058720795434,-1.5215091839724613,1.5799672789043375,0.0500930354112791,1
1051,5452,-0.0530313869786629,-1.501368063605536,1.171159309665254,-0.0425400331208981,1
1052,5453,-0.0995546585017561,-1.4986896630570206,1.4798864978002864,-0.0001375254943448,1
1053,5454,-0.0261995714007254,-1.3618789531130489,1.4626182157564256,0.0409329641759726,1
1054,5455,-0.0336161971861613,-1.9589830639577035,1.7836773739893497,-0.0402741213355666,1
1055,5456,-0.1527399749027448,-1.707115305293457,1.4658847218260682,0.1324514482822845,1
1056,5457,-0.0454730364230986,-1.4006391059139742,1.3740325542544185,0.0250784972583546,1
1057,5458,-0.0307764357887915,-1.297010615844485,1.336524421196965,0.0269199243153889,1
1058,5459,-0.1052874189916453,-1.6234868148116235,1.5387065961358553,0.2700095600806823,1
1059,5460,-0.1415075905006583,-1.8218564389760707,1.5025346517986835,-0.0960234108996456,1
1060,5461,-0.1573781060325252,-1.991488515775489,1.6879196935852612,0.1065242721619552,1
1061,5462,-0.0840938790373282,-1.6559776830807065,1.5290395588528587,0.1379129354048836,1
1062,5463,-0.0323863979288502,-1.407315659706287,1.4718186957430095,0.0988966922303146,1
1063,5464,-0.0939205989301038,-1.6980264621135948,1.5931352637932847,0.0579661369245954,1
1064,5465,-0.1312752894338644,-1.835280053694674,1.8834769594521843,0.1065212021193231,1
1065,5466,-0.00577603726247,-1.4009497830026163,1.4915067577298426,0.0643298519235875,1
1066,5467,-0.0726608393258359,-2.7248977945078874,2.551628129982948,-0.0345215345772926,1
1067,5468,-0.0995961340923441,-1.888200377961931,1.927808922240033,0.0453778355376079,1
1068,5469,-0.0572122492998347,-2.581458463978584,2.0714830970567464,-0.1008829091274757,1
1069,5470,-0.0238038372999001,-1.705275062421873,1.567865944909644,-0.105761747933049,1
1070,5471,0.0587747033332879,-1.199878150048428,1.3219118867768789,0.1276412038013542,1
1071,5472,-0.0293664410155,-1.138218998685155,1.2757678987632182,0.1470100255819093,1
1072,5473,-0.0901302686552545,-1.5937965722744436,1.6781177428726315,0.1245508010959895,1
1073,5474,-0.12506212696257,-1.7421449947083891,1.5784031118361082,0.0961966178948302,1
1074,5475,-0.0776996327337672,-1.7318373920832495,1.6604545213517743,0.0602789772848229,1
1075,5476,-0.1889227272176235,-2.006741845947351,1.884743438518083,0.2054183338054691,1
1076,5477,-0.124703358375384,-1.9386422155538277,1.8375914564840323,0.0318279167449967,1
1077,5478,0.0137905751008764,-1.4944410636218377,1.503816165421885,-0.0812229521590692,1
1078,5479,-0.0292895774306858,-1.7491425578980004,1.7752893346379008,0.0215921140178637,1
1079,5480,-0.0386121278823203,-1.9906576796260715,1.846199611506856,-0.003846477738679,1
1080,5481,-0.0958414355253614,-2.40506125622014,2.114246213462548,-0.0505457675303558,1
1081,5482,0.0176151306350617,-2.2569790335509383,2.580531555037941,0.0010911522850715,1
1082,5483,-0.0737050195355804,-2.0863005386686404,1.9532671600418376,-0.00262965875514,1
1083,5484,-0.1785931353983207,-2.392690883131167,2.047058703050479,-0.136088783114562,1
1084,5485,0.0395012649347412,-1.501843857978372,1.6030047858505028,-0.236574605921911,1
1085,5486,0.0370408315365421,-1.9792318659130483,1.800369031822321,-0.0982749698148397,1
1086,5487,-0.047945561813486,-2.237660739398689,2.2903564823512985,-0.0037612618596086,1
1087,5488,-0.2732597941602224,-2.7219833480899425,2.8876264602512114,0.3464650091461445,1
1088,5489,-0.2351689019433711,-2.5761556127036744,2.319204847483698,0.1205866931606128,1
1089,5490,-0.223814790497512,-2.175076352257466,1.8914032889841903,0.073819495362833,1
1090,5491,-0.2257376768485711,-2.224447175879624,1.858716378969204,0.0500809928822526,1
1091,5492,-0.0266624102377578,-1.8937549095259076,2.0234293307790376,0.0446935052052954,1
1092,5493,-0.2023133917977387,-2.223316190500781,2.412457522426016,0.2612459648948832,1
1093,5494,-0.0876898806468381,-2.5821449035447035,2.379222180159379,0.1881741311263508,1
1094,5495,-0.1472069288484911,-2.0488909868528613,1.8553014497343243,0.0251597945678528,1
1095,5496,-0.0531718473338503,-1.8012450031715002,1.980897586639624,0.049530489338333,1
1096,5497,-0.052794398691161,-2.1609839450212918,1.7942766376389685,0.0668082328754631,1
1097,5498,-0.09903746227665,-1.7405352477345306,1.7596191932380283,-0.0440313978296596,1
1098,5499,-0.1412403395876625,-1.6229439707775983,1.4833083232491977,0.0947893991599362,1
1099,5500,0.0420788222044322,-1.0940913510981265,1.3011168793602113,0.1149719302969705,1
1100,5501,0.0054228416893568,-0.1856058833417963,0.2276013108938199,0.290423365109711,1
1101,5502,-0.0070925285519692,-0.341760447839916,0.3091708817053594,-0.4582831118092041,1
1102,5503,0.0126751776048431,-0.251041289668155,0.230020005881309,-0.0003287407469851,1
1103,5504,0.0099365551003737,-0.2468380065382756,0.2387604451829537,0.139016938070712,1
1104,5505,-0.0006139123783012,-0.1179872708020852,0.1092141897560596,0.0056928127590415,1
1105,5506,-7.251178247117632e-05,-0.1629310815551925,0.1797392813409979,0.3823781570141083,1
1106,5507,0.0035796031347565,-0.1788043013314746,0.2023493604332917,0.1822372152813882,1
1107,5508,0.008990788909258,-0.2926538554961374,0.3174921415775917,0.324293831543167,1
1108,5509,0.0050297474186392,-0.2594824109006404,0.2285873697721205,-0.2188329282748319,1
1109,5510,0.0014729989801301,-0.1402526594980843,0.1305936366016477,0.0781362260473359,1
1110,5511,0.006400397947375,-0.2847264128525817,0.3286299640661968,0.6975490503250914,1
1111,5512,0.0254228193185608,-0.982974444118754,1.0140468832008895,-0.0377345229588899,1
1112,5513,0.0045770257428205,-0.2027085277960459,0.2328600359841,0.2371046492776074,1
1113,5514,-0.0797058608894161,-1.5128802354122088,0.7192849722206872,-1.7872227766868207,1
1114,5515,0.0078274890720486,-0.4574289806426664,0.4106204261479954,-0.3690585978904207,1
1115,5516,0.032207874795485,-0.4736623551139569,0.6985912160420406,1.0622359788264069,1
1116,5517,0.0042901931782353,-0.238651803782658,0.2915494011243975,0.5696627479974067,1
1117,5518,0.0111360696379075,-0.3011734575025764,0.2920428419153686,0.0700500197390406,1
1118,5519,0.0173667812483822,-0.3541736660316179,0.2939668576325354,0.1510965081631911,1
1119,5520,-0.0006027902578846,-0.1489231861870335,0.1523931578087173,-0.1753739185513463,1
1120,5521,-0.000353216193134,-0.0973107004269209,0.0977599375796278,-0.3423264213542863,1
1121,5522,0.0069109431742799,-0.2307155224634727,0.258944878344682,0.0712170019537864,1
1122,5523,0.0106009027417759,-0.2679145839253749,0.2602244844211292,0.110070947794664,1
1123,5524,0.00882433940309,-0.3262062899843631,0.3719079981282291,0.2108844498791439,1
1124,5525,0.0356394752356105,-0.5918970707349093,0.5703851968600215,-0.1695086510855024,1
1125,5526,-0.0855532436603651,-1.1538531718477905,1.1534480254433663,0.2749998190798745,1
1126,5527,0.172565938021129,-0.5927237961205163,1.289861707709541,0.9698173642354864,1
1127,5528,0.0133763479917173,-0.5020733376385058,0.4690137095941386,-0.0338032918268925,1
1128,5529,-0.0048614137793783,-1.1860025373404224,1.070014370537587,-0.1688372574698997,1
1129,5530,-0.1033271004250377,-1.0674459670850962,1.0789452312395924,0.3203178944122385,1
1130,5531,0.0192372061480882,-0.4786684190744646,0.4476193844312592,-0.0770492026586863,1
1131,5532,0.0670474141086613,-0.7976685650418847,1.303942886826102,0.9687450750568424,1
1132,5533,0.0253752081021512,-0.4865422757303334,0.4306665681075974,-0.1279923587658863,1
1133,5534,-0.0006492706836149,-0.2145340952413558,0.2536719590666806,0.1351648492608835,1
1134,5535,0.0112974829601189,-0.3383809949310158,0.3458323886355173,-0.0555805331847971,1
1135,5536,0.0672657475066617,-0.6921243298338451,1.257463961372263,1.2718716210761605,1
1136,5537,0.0111890231399503,-0.3740137528946005,0.3644189790280194,0.305337863035391,1
1137,5538,0.0057341665243587,-0.2241966677605797,0.3152955524934446,0.4612651603633252,1
1138,5539,0.0416553657294608,-1.1073312001795288,1.111950624627141,-0.0240390370926146,1
1139,5540,0.0233206387170205,-0.5001523708467663,0.4676904208195865,-0.0131648198801811,1
1140,5541,0.0095699295367049,-0.3713930074604779,0.381201301768533,-0.0456388489831859,1
1141,5542,0.0005199127357476,-0.595749597704454,0.5537059804544875,-0.2777780645106681,1
1142,5543,0.0219025071258995,-0.5205146138315968,0.4699491336161462,0.2772275633814884,1
1143,5544,0.0231017465503336,-0.5468943682492733,0.6003667760024366,0.4608842480368681,1
1144,5545,-0.0248274806352154,-1.2071356457893376,1.1957833509107043,0.1076601070174194,1
1145,5546,0.0080886508695683,-0.249739003322102,0.2675603742891825,0.2953178776927792,1
1146,5547,-0.0007495643858132,-0.254852719468862,0.3277150779622055,0.3094821718842111,1
1147,5548,0.079652852879337,-0.6506514002420386,1.21834541519976,1.2680305477275078,1
1148,5549,0.0149048649727162,-0.3897865521585397,0.3562906123961851,-0.073470596185588,1
1149,5550,0.0309440077512563,-0.7009798917294676,0.6453215398269676,-0.2421273352367158,1
1150,5551,0.0224601550255077,-0.6447922755808895,0.7059289854110387,0.4180341715489752,1
1151,5552,0.0064655623416846,-1.2164316595376787,1.2475252727889217,0.0879722138637283,1
1152,5553,0.0169940650474381,-1.524213951705718,1.534419589715462,-0.0328521791918262,1
1153,5554,0.4785279492758563,-0.790830778026292,3.435869257686416,1.6715404142604793,1
1154,5555,-0.1385008649285056,-1.304303633536382,1.3017095839082646,0.3501282688810843,1
1155,5556,0.0152060552612276,-0.7325447088152859,0.6594747157680663,-0.0614143254720348,1
1156,5557,-0.1184062153716382,-1.262255619846685,1.2581796739276072,0.3360623266053291,1
1157,5558,0.023956887148395,-0.4530273804522747,0.5062437856739965,0.2090800374366706,1
1158,5559,0.0539759148813729,-0.7376105015290213,1.1771701510326815,1.1649332611070642,1
1159,5560,-0.0007147516006443,-0.2654245588937867,0.3699609536203859,0.3277795108644145,1
1160,5561,0.0399857292105176,-0.7031797096033725,0.7929321296557988,0.160266128510515,1
1161,5562,-0.0918773415234351,-1.5195230804068167,1.4921244775934372,0.190824190602512,1
1162,5563,0.0010520367075773,-0.3305161760049158,0.3585521729017624,0.2973134210470468,1
1163,5564,0.2889677809819,-1.0870042346023645,2.310751053162036,1.266119143247349,1
1164,5565,0.0012961097271057,-0.2627673697453712,0.4031334301248545,0.8664923996382048,1
1165,5566,-0.0061424726369705,-0.6186329320960626,0.4847064063934718,-0.4493959164360147,1
1166,5567,0.0886665645486709,-0.9863395046033804,1.039285546128031,-0.0038450188176728,1
1167,5568,0.0051802869289611,-0.5826340252480995,0.5061676195346023,-0.5258375831681592,1
1168,5569,0.1385751969591258,-1.8273511288923725,2.073750707855725,0.3542460847520718,1
1169,5570,-0.1713918323827667,-1.4356752243043411,1.449961986804214,0.3155836897385797,1
1170,5571,-0.0859996712600487,-1.3517548898488745,1.3856674040594474,0.2358016357650455,1
1171,5572,-0.0848904877545594,-1.4643878902327847,1.484520552032869,0.176613780423744,1
1172,5573,-0.3067500605555572,-2.837570861563586,1.6929239268446752,-0.3118890770855809,1
1173,5574,-0.0544252078091076,-1.494406081025026,1.5427994291749294,0.1534157797869452,1
1174,5575,-0.2169973216746094,-1.5188334948804572,1.519006627727016,0.4331347613718614,1
1175,5576,-0.1026647343149396,-1.5381601536129228,1.5352122541860636,0.1769132631256143,1
1176,5577,-0.1800253292101675,-1.3896038359239642,1.3860515106477176,0.4114628534896527,1
1177,5578,0.0117636209682511,-0.4000067226449483,0.4073843483016215,0.7201598143215626,1
1178,5579,0.0408077372043047,-0.549952531462093,0.6573399287500652,0.1488986061579927,1
1179,5580,0.0065947206754708,-0.4458640247816299,0.495546031052796,0.5604203072779124,1
1180,5581,-0.0002049755096212,-0.1705478021465212,0.1859955294275359,-0.0753295189829942,1
1181,5582,0.0428278679528733,-1.1452916577156802,1.1773384590985017,0.1094781264097006,1
1182,5583,0.0160372840477955,-0.480331251981514,0.5028181187786988,-0.0195206355812768,1
1183,5584,0.0041682245012127,-0.5216150256921461,0.5935907879633702,0.2118278869136594,1
1184,5585,0.2293441038232978,-1.0846726451961786,1.9805878702652788,1.126148306951398,1
1185,5586,-0.0961026358769219,-1.4305999541332175,1.4255957609447298,0.2402060424495045,1
1186,5587,-0.0862104329442797,-1.3397884536046578,1.374053695441669,0.2123035274770306,1
1187,5588,0.0209436227382399,-0.7663792355137705,0.6904377550967986,-0.1912818367755925,1
1188,5589,0.1201005114589812,-0.6316303230476533,1.4041141004373845,1.5969178821733376,1
1189,5590,0.0196609050347937,-0.5075704564724184,0.4559096846972777,0.0421134017948286,1
1190,5591,-0.1315926144188323,-1.2984480482192686,1.238518054310961,0.3134387894795766,1
1191,5592,-0.0307512149826614,-1.357979312846806,1.3934241868567527,0.1214959845915954,1
1192,5593,0.0153425540948271,-0.4494744346869226,0.4483766892002452,0.0690163435797645,1
1193,5594,0.003055546841308,-0.1836569887123545,0.2087218132566969,-0.0020607082511069,1
1194,5595,0.0059276130204293,-0.154653889460452,0.1432423650908172,0.0593363541925229,1
1195,5596,0.0052691619170389,-0.4449166468546809,0.507618737950144,0.2341180021749066,1
1196,5597,-0.0678650977332295,-1.266206483082831,1.2703032687446352,0.2235285012008148,1
1197,5598,-0.0098544300270655,-1.3459321111142626,1.543805313005555,0.1006975332258996,1
1198,5599,0.078752091506757,-0.7024500774701482,0.8489547871410299,0.2392841894602438,1
1199,5600,-0.0239603370808645,-2.425064996174133,1.9888570717775516,-0.56242022631941,1
1200,5601,-0.1300003293585044,-1.9554337257900656,1.860972445863732,0.0750962000739606,1
1201,5602,-0.3458439158043393,-2.3143441366678053,1.7940080424644471,0.1475900373523301,1
1202,5603,-0.2915048626466812,-2.1125632363805917,1.9957210881001728,0.2050926526502418,1
1203,5604,-0.0935629494732747,-1.7076868104491345,1.897202088728992,0.1376874099649368,1
1204,5605,-0.1629618257254894,-1.929783985135303,1.722387483678934,0.0967337000665505,1
1205,5606,-0.0291658217918996,-2.0073809892220784,2.8166899273878814,0.476073447246698,1
1206,5607,-0.4969523665074555,-2.335056005350682,1.862522515904128,0.3540068560550344,1
1207,5608,-0.1688435680973676,-1.8191569874111928,1.6239081511328557,0.1222998034639568,1
1208,5609,0.0466619952439828,-1.5619225607177534,1.547855465367494,-0.1447019105482686,1
1209,5610,-0.1909754278951499,-2.077662479181671,1.7192362126661456,0.0870510543197352,1
1210,5611,-0.1139449828218784,-1.790652998670467,1.7045469816519023,0.1948069607442519,1
1211,5612,-0.2044478995542966,-1.864253627653517,2.033020962956924,0.2765550501491552,1
1212,5613,-0.4095563890349851,-2.047533818464016,1.830545303031072,0.4108123905362205,1
1213,5614,-0.2777451069969838,-2.131828845385418,1.827585830803534,0.2103512652442825,1
1214,5615,-0.2404207662940845,-1.9713294962075116,1.637876299836619,0.0711286918645381,1
1215,5616,-0.0708890429247606,-1.9069207249720743,1.913318679947363,0.1943254453756187,1
1216,5617,-0.0686034760319892,-1.5978559149681169,1.5789415016393529,0.065722291280786,1
1217,5618,-0.3726479452280237,-2.369200672731396,1.8914424599935864,0.2651244302952372,1
1218,5619,-0.1424067107702875,-1.8005512776720851,1.6960640571257963,0.086969395430107,1
1219,5620,-0.406323617421722,-2.353212492042834,1.7832943355254385,0.2270685531510345,1
1220,5621,0.0241197485811787,-1.633000051457731,1.6013702118580404,-0.086019592450036,1
1221,5622,-0.3157696700862458,-2.3032091261786034,2.109809161688019,0.2839448322247428,1
1222,5623,-0.2560976656602454,-1.9177094176016836,1.9026051039622924,0.3274744421710799,1
1223,5624,-0.2270790015809001,-2.183447773009565,2.465328975956074,0.4449891549432688,1
1224,5625,-0.4167369753620709,-2.3431039800542037,1.840841117039837,0.2292175915652967,1
1225,5626,-0.0527478722272019,-1.7228451575963803,1.7054282746416811,0.0681027988474727,1
1226,5627,-0.2085259508339297,-2.1566055321065867,1.808349405426481,0.0891785215240732,1
1227,5628,-0.2886680492711546,-1.991518575026419,2.128475913456832,0.3983593589759734,1
1228,5629,-0.1358370302919884,-1.699504822353732,1.6668613083160984,0.1315593635050422,1
1229,5630,-0.00823731598664,-1.4557438687610034,1.4451608797277675,-0.0690107009517046,1
1230,5631,-0.1768411694465578,-1.9882397174284847,1.6394985384412235,0.0031077618353198,1
1231,5632,-0.0864179113521753,-1.6543562187773206,1.7118622303234343,0.1360940142451894,1
1232,5633,-0.2796842975173625,-1.876392026609212,1.7023459721106642,0.2895534559671023,1
1233,5634,-0.1612715736262975,-1.9472640146869613,2.0865965166164018,0.2852037255009043,1
1234,5635,-0.3025473124179244,-2.0816315870385447,2.0729075967235446,0.2690527097196225,1
1235,5636,-0.1245834154637397,-2.029133557552133,1.8180187317881351,0.1047808749408899,1
1236,5637,-0.1790525090394769,-2.1962305429908,2.3484676220548906,0.2883086690925095,1
1237,5638,-0.3654098562639811,-2.3046172333528383,1.794581574746648,0.1655531328253885,1
1238,5639,-0.2961087492692808,-2.189995679202041,2.1836447623449446,0.2512509838947924,1
1239,5640,-0.0871441763337292,-1.8894847186674908,1.8850379776292083,0.139518713062041,1
1240,5641,-0.0207687205385772,-1.8571076851957369,1.841237937954288,0.103429726185344,1
1241,5642,-0.1215147484740549,-1.7709897303904265,1.9965098824030765,0.2032533978626798,1
1242,5643,-0.3217410020373445,-1.9946718199038176,2.191393176289916,0.3893128020799238,1
1243,5644,-0.4431872699493391,-2.235905610209532,2.20498536315115,0.4467485916115253,1
1244,5645,-0.3412386989424997,-2.01915253269037,1.7163252433435043,0.36854915885092,1
1245,5646,-0.2375189550775231,-2.016942528453121,2.264795962173493,0.4340083036895927,1
1246,5647,-0.0243641214118675,-1.7750495007379183,1.6613353600433651,-0.043607035637008,1
1247,5648,-0.0485613681716625,-1.688885800653983,1.669705468760588,0.0601197573050219,1
1248,5649,-0.3227203738535546,-2.359838011228917,1.9189127408596596,0.3157767928101792,1
1249,5650,-0.074625047946141,-2.1931460242268708,1.952340118541,0.0191634984696476,1
1250,5651,-0.3600672807360681,-2.444416840962784,2.130261751571747,0.223002231868863,1
1251,5652,-0.0512343077702457,-1.903774402156182,1.9044619456622225,0.0452024060052869,1
1252,5653,-0.0737633659779311,-1.750574694396262,1.7351795082675636,0.0911126839372185,1
1253,5654,-0.0592682692334486,-1.7468815920159786,1.7073775312509736,0.0552443791027233,1
1254,5655,-0.4092485517584503,-2.259711731028284,2.4334921329445907,0.442021662844078,1
1255,5656,-0.3490463513541114,-2.2263409948575146,2.397330914923763,0.3720529362331135,1
1256,5657,-0.3199357259294209,-2.134591456003152,1.8147199090937225,0.2518234825521221,1
1257,5658,-0.0614462379500634,-1.718534250368001,1.5778461432491406,0.0137125533464974,1
1258,5659,-0.4969745735347778,-2.461946918562712,2.0937682049894426,0.351328653164246,1
1259,5660,-0.0961287670672431,-1.860300935391391,1.82546460778901,0.0907001863715561,1
1260,5661,-0.3085784827546945,-2.437013228443993,2.235990842841752,0.3563607267071841,1
1261,5662,-0.2870232655621645,-2.0361048153852592,2.343152129786337,0.3772058492190837,1
1262,5663,-0.2812487669575471,-2.1347306765094824,2.3552901045689127,0.363391354875422,1
1263,5664,-0.0439811084266256,-1.8540871712437876,1.6464106362989477,0.0109750985351836,1
1264,5665,-0.407045648046281,-2.4185747270287603,1.9487900969856824,0.2423157831995417,1
1265,5666,-0.0188286863130589,-1.9903268919508863,1.80341356519651,-0.0374827553641332,1
1266,5667,-0.1819813169643446,-2.4516499923767228,2.268132303281256,0.0821783640488409,1
1267,5668,-0.2034301327319398,-2.441534178393906,2.0974627415687728,0.0907663670120811,1
1268,5669,-0.0869629395080142,-2.261694549711768,2.068289895201975,0.1390030275789519,1
1269,5670,-0.3485107416911675,-2.131001624954832,2.131007583766558,0.3476236230174388,1
1270,5671,-0.2111653035660432,-2.106532917993837,2.30197435521044,0.2319549082373171,1
1271,5672,-0.0924339308576038,-1.927449802212741,2.0394747984714834,0.1354102504968319,1
1272,5673,-0.2942201483829225,-2.153007757296945,1.9106294385599587,0.2020062443304954,1
1273,5674,-0.1015742094843424,-1.969920919009283,1.968397764952853,0.0883149918941842,1
1274,5675,-0.0900155176196065,-1.5040834805264909,1.8305367140940605,0.2187948038579607,1
1275,5676,-0.0116980108370118,-1.832475984603464,1.786677995808903,0.019316606025963,1
1276,5677,-0.0967245343398265,-1.862818930278896,1.844609851471274,0.1487104945215999,1
1277,5678,-0.1769609311951558,-2.4039267217664264,1.995390327451336,-0.0129221916918047,1
1278,5679,-0.1627273426196263,-2.1018932930113485,2.025736860752357,0.2114646440584287,1
1279,5680,-0.279616353132479,-2.312203726243623,2.115020474095248,0.2177424823916055,1
1280,5681,-0.2750770614426527,-2.611796845457542,2.4352610109729875,0.209744529149199,1
1281,5682,-0.0492242991860451,-2.1451286732947947,2.093268562246119,0.035404369219532,1
1282,5683,-0.4012141279612026,-2.572301093183099,2.32340140748853,0.3557211361802385,1
1283,5684,-0.159379339364072,-2.468294458168344,1.9304899710502847,-0.0019947553275744,1
1284,5685,-0.0175393307577493,-2.169334668197472,2.817050719408352,0.4553241036744719,1
1285,5686,-0.4055750031982876,-2.3043054546092367,2.0964446352918307,0.372362048984008,1
1286,5687,-0.3933312706338023,-2.488745962830737,2.1642756128654708,0.2688766259851926,1
1287,5688,-0.5395917008455546,-2.704197242726655,2.124833431878706,0.3048403214842951,1
1288,5689,0.0297435630160545,-1.753762908269719,1.7008011087672932,-0.1159310365852163,1
1289,5690,-0.4670790732562745,-2.6186763354123657,2.4025732085822025,0.3808045064551499,1
1290,5691,-0.0659194725995795,-2.0033460396288403,1.764175865348543,0.0033849852876333,1
1291,5692,-0.3538404230601147,-2.3539880375775706,2.06377970181489,0.2486626536729466,1
1292,5693,-0.0957148178782639,-2.1140461422279264,2.1374146975258226,0.1287434151757598,1
1293,5694,0.0179591842735922,-2.0005627456365063,1.8145390976959783,-0.0798987076113727,1
1294,5695,-0.0405658210245085,-1.880700866933299,1.8403536728272296,0.0144180186802681,1
1295,5696,-0.2909427851833151,-2.535583514002969,2.4574396889921086,0.318195197198223,1
1296,5697,-0.4548018105106894,-2.448570252796356,2.304109122292402,0.4175396215694237,1
1297,5698,-0.3855016404982709,-2.571233612422911,2.239576762180224,0.2607417265644967,1
1298,5699,0.0003949128126357,-2.0594126667644286,2.018238160014433,0.0177949043959303,1
1299,5700,-0.3768343922567962,-2.806447135681581,2.594641148329412,0.3413004057058255,1
1300,5701,0.1307458939559054,-2.102547470956522,3.3308375872388822,0.9381870457137538,1
1301,5702,-0.0371364455708789,-0.8499798329723698,0.9126875065882368,-0.1380705872603613,1
1302,5703,-0.0385700851043845,-1.2816411264936298,1.4314635048823936,0.1661264995192045,1
1303,5704,-0.1603003671169326,-1.711312447573781,2.0048913564377977,0.1930680129425449,1
1304,5705,-0.0334152908819398,-1.4950961769924778,1.4924646651972142,-0.0285037761268655,1
1305,5706,0.1860548763972022,-2.8907867454302587,4.79832171699525,0.8213792748566032,1
1306,5707,-0.1691863418898878,-2.4172124569748505,1.9225147023418068,-0.0327309240255138,1
1307,5708,0.1472296371285542,-2.141282626511313,3.1191858224004854,0.3904943205640506,1
1308,5709,-0.2240572783542745,-2.7775775260859565,2.661439086869919,-0.0299955895207175,1
1309,5710,-0.2056792073328569,-2.4617155030787163,2.2773604207421814,0.044580561321459,1
1310,5711,0.0888152998584212,-2.3369187053981406,1.8261123370378,-0.23172551105036,1
1311,5712,-0.3183660580205197,-2.6640893873546867,2.7344340113915946,0.1326963686570416,1
1312,5713,-0.0004768863697089,-1.5169540878169363,1.5182974739430288,-0.0819342452325671,1
1313,5714,-0.1421130871123027,-1.944741607778651,1.5390505457848975,-0.0896166053910579,1
1314,5715,-0.0933013444922072,-1.8570040183811016,1.476442495626067,-0.0851939645126198,1
1315,5716,-0.0015400340166517,-1.5841848680400092,1.7281549810070436,0.2198155776377019,1
1316,5717,-0.0659017291894247,-2.008204348754725,1.8449603378834496,-0.0622158513081139,1
1317,5718,-0.051122363166108,-2.146359154247355,1.8187709143679072,-0.0915412236620522,1
1318,5719,-0.1830723293822589,-2.5429726285512166,2.237504509709741,-0.137506824132154,1
1319,5720,0.1219956425407108,-2.4858186219834213,4.059764294288959,0.6281362837859198,1
1320,5721,-0.3109170011711837,-2.826588174150622,2.2381064876675114,0.0039261385108509,1
1321,5722,-0.1747855894863128,-2.631389350598946,2.336518813286112,-0.0641343280124944,1
1322,5723,-0.3921635529657855,-4.306198891849654,2.4005453064776265,-0.6409970313360684,1
1323,5724,0.0425237975757558,-1.5428940951885013,1.6256557710604158,0.1814260749597976,1
1324,5725,-0.0884042318097984,-2.372046141717152,2.15302888408638,-0.0984393306654495,1
1325,5726,0.0211347006785833,-1.951438559876658,1.7344266801588566,-0.0580981714144102,1
1326,5727,-0.3361794770526769,-4.871051744641013,5.400070353109488,0.117643745025452,1
1327,5728,0.1144337951301062,-2.559895023644348,2.493353777684322,-0.1726678180274472,1
1328,5729,-0.036512919225168,-1.613558767769279,1.7436798548723464,0.0764847491158974,1
1329,5730,-0.0395016168308849,-2.2264277751526134,1.882305359142156,-0.1062803327332939,1
1330,5731,0.1036395980685693,-1.8780105201509267,2.160793318213651,0.0764439498037257,1
1331,5732,-0.0058839937885758,-2.320424685255649,2.095615801516338,-0.027505832690847,1
1332,5733,-0.0378078037620629,-1.3565292976150547,1.5790336959405566,0.1908950318257218,1
1333,5734,0.1511250002077772,-2.872104375351359,4.903320382662241,0.6103617268737869,1
1334,5735,-0.0213217727993184,-1.4311041283020542,1.4296849626849142,0.1529778979438744,1
1335,5736,0.0055511376948342,-1.3825069369101326,1.3000629821844196,-0.0143903940318071,1
1336,5737,-0.0022394888290472,-1.31124723411941,1.276815544680156,0.0621143298084148,1
1337,5738,-0.0047555965359401,-1.0386148790080196,1.234970668506229,0.2383092528756109,1
1338,5739,0.0991162723349158,-1.3547467373215798,1.6472949596107838,0.2622134717369002,1
1339,5740,0.0197455837902787,-1.7033202043530205,1.5998666202588732,-0.1467182245967739,1
1340,5741,-0.0367216296461557,-1.285969132855774,1.5486045218687357,0.153099674767695,1
