,Set_no,Imf_1_MEAN,Imf_1_MIN,Imf_1_MAX,Imf_1_SKEWNESS,Label
0,4401,0.04009337619710624,-0.6474982183126741,0.6861183371012649,0.029075137090853926,1
1,4402,0.07351132194808863,-1.3889926556756378,1.7147384748436678,0.5193025970328031,1
2,4403,-0.010256930115364896,-0.9489749983988645,0.9242902656379561,-0.015019468406764479,1
3,4404,-0.018021164551295585,-0.5032843647416432,0.459044314505993,-0.047669755185056735,1
4,4405,-0.05467437392117488,-0.6119352312018128,0.7499802320283684,0.25580513487151924,1
5,4406,-0.03422802728698816,-0.6067821603290535,0.4747584744183656,-0.18838143203515312,1
6,4407,-0.00463402663157242,-0.24459190169837247,0.2915405183316724,0.11057313957020581,1
7,4408,-0.005944272612198829,-0.5349409187731102,0.4150811885353613,-0.2460793893602238,1
8,4409,-0.0047205145370029,-0.6327581359932113,0.9457665977624894,0.6904525739217257,1
9,4410,-0.0010951615061755087,-0.21721887559861044,0.24207728582599292,0.0017817542586209224,1
10,4411,0.046270705190217615,-0.47983895395116116,0.7587439199904136,0.8635718772543379,1
11,4412,0.003865951449741259,-0.20097072319072667,0.17039750642696358,-0.05756789275477619,1
12,4413,-0.04782561711739949,-0.41642942495583296,0.3529536375378379,-0.1225706116438359,1
13,4414,0.00768658193763514,-0.1920624437266229,0.18573083004486962,-0.09029187032067831,1
14,4415,-0.058494296261870714,-0.42409940581698613,0.34594628028339813,0.19742133076344676,1
15,4416,0.023703503486562583,-0.40441311228439575,0.5788109980534852,0.7498835693713337,1
16,4417,-0.0013457983699900714,-0.15764194614037608,0.14695203165095028,-0.18163675475754282,1
17,4418,-0.0003984902785263089,-0.10069869823729634,0.1081068360461074,-0.02127364572082663,1
18,4419,0.0063901480001208495,-0.36473139083052264,0.3860028502858854,0.1758482243696418,1
19,4420,0.0013819721670402282,-0.34008997445656025,0.3053355849891559,-0.4501094279287821,1
20,4421,-0.005320973414560161,-0.23808285245141736,0.27169750454853303,0.21200032485286627,1
21,4422,0.004872805591209436,-0.16286298688317824,0.1538521509944874,-0.22966760743553144,1
22,4423,-0.0019436817837834685,-0.37052863912076506,0.28894937208826943,-0.7973985059427733,1
23,4424,0.01522985337927596,-0.5848969259302219,0.9539239626907947,1.0528765631339716,1
24,4425,-0.001901066157720931,-0.2389457873356021,0.2624118862578857,-0.13328326019716566,1
25,4426,-0.0048498447004118785,-0.3231611896189095,0.25107230460744867,-0.6171313869046944,1
26,4427,-0.003752574660770012,-0.38937817819360965,0.3539650709085842,-0.24373521737387072,1
27,4428,0.012356189959249907,-0.3492128873356287,0.383159235536902,0.18954903813709434,1
28,4429,0.010395711484604763,-0.34459692902183114,0.3623662590292574,0.025304133206189388,1
29,4430,0.012029659584847337,-0.41076913046024904,0.4039226124313301,0.09382951423945145,1
30,4431,0.01068182443303624,-0.3955507857906011,0.3595776779449845,-0.07597756970105993,1
31,4432,-0.00492147377071073,-0.3734061358690447,0.3312484754960244,-0.5073663242051715,1
32,4433,0.006301515822346799,-0.22805602276706877,0.22301686916413652,-0.014252310781584464,1
33,4434,-0.05532963270401594,-0.6182275645538462,0.7094031370267022,0.22647833756934876,1
34,4435,0.005172594244647552,-0.22196117728989923,0.25397601900647027,0.1310439523510287,1
35,4436,-0.0006832632110886712,-0.19912417059478055,0.19096823614793226,-0.04509733512643365,1
36,4437,0.012708484897991397,-0.4993392413093787,0.8416401148344522,0.7414529701864115,1
37,4438,0.009237523132343523,-0.5690681722793522,0.5140675061902793,0.029672946689180607,1
38,4439,0.026262098624073454,-0.3472292905944421,0.3733352242732319,0.19770960089081477,1
39,4440,-0.0014277881616770645,-0.6652328519227733,0.6308307842260814,-0.02968874111703764,1
40,4441,0.007074297937846647,-0.35476578832099653,0.406427761608729,0.21431110701285871,1
41,4442,0.0017826747708618504,-0.3356640745903411,0.30746551790352067,0.10884380766849173,1
42,4443,-0.01627909673959389,-0.3905888286438307,0.3524046677993228,-0.22484529338874104,1
43,4444,0.002882825399856119,-0.22925740816555223,0.25505995222438405,-0.04531726061683176,1
44,4445,-0.051759102839015435,-0.6290769975087112,0.510442348119857,0.09000986019607468,1
45,4446,0.011101355477168803,-0.48116386610251005,0.4547261661551856,-0.35150534581356346,1
46,4447,-0.005443173491213351,-0.473156646064142,0.5163471625234546,0.10463852216908172,1
47,4448,-0.0065594225802095805,-0.44903643891842837,0.3955487501979792,-0.04866512724677179,1
48,4449,0.007959115517939446,-0.31743270769737764,0.3246635586149538,-0.08303436700051399,1
49,4450,0.028511898092583334,-0.3163611102095195,0.38608568810884475,0.37277679231010946,1
50,4451,0.0835967372746238,-0.5093077268163726,0.9568026101262973,0.9406894559280242,1
51,4452,0.0008368770856681777,-0.34523345798711025,0.3441160713956557,0.08560220395790011,1
52,4453,0.011246423291668958,-0.36327268127114964,0.30915312793162314,-0.164271905198156,1
53,4454,0.0017307879969815669,-0.5277486184176345,0.48560209043984137,0.035358897463879005,1
54,4455,-0.013270182506181158,-0.5033166077831421,0.4481262307195868,-0.47791272569447424,1
55,4456,-0.009592296046368054,-0.34022060303267104,0.3137628918257924,0.07586365208587295,1
56,4457,-0.07271089770841462,-0.6147935906592403,0.6462871643556896,0.014114311298418131,1
57,4458,-0.03739066287098472,-0.5101359894362623,0.40313840723724603,-0.13500848811069546,1
58,4459,-0.059729963012521,-0.534730126817718,0.4011454464221521,-0.10980036068382265,1
59,4460,0.026046607654249043,-0.37433687809070193,0.5518235469792522,0.41325658678365534,1
60,4461,-0.0781534057592846,-0.5443190075273708,0.6353668481883219,0.32583659654558256,1
61,4462,-0.028345299359568348,-0.5078485552896378,0.406848294724223,-0.3630401981112262,1
62,4463,0.03148089549534694,-0.4304853501680298,0.6284848911839196,0.7974249155098111,1
63,4464,0.008876772401122881,-0.3657030920686489,0.40397753303831396,0.07956643112720922,1
64,4465,0.0027650063277341367,-0.4994486069995132,0.41723645068524573,-0.56343325400878,1
65,4466,0.03070861637377367,-0.5224885213690817,0.8187358045874336,1.0377008925395552,1
66,4467,0.007843375415192394,-0.4068272510119795,0.4396342989508252,0.13539765489809322,1
67,4468,-0.09213149981584105,-0.7580753383757998,0.5422138177114196,-0.21455501828157578,1
68,4469,-0.10301736859118264,-0.697962191469117,0.5379018748160627,0.055804430667993433,1
69,4470,0.0023159279666879833,-0.18867368290528805,0.21764716203716414,0.3660048279346422,1
70,4471,-0.11497540331618657,-0.8974191157836198,0.6296632878156376,-0.10200518186932539,1
71,4472,-0.05114738335281397,-0.5352078133448778,0.48931768585200797,0.34008491126316487,1
72,4473,-0.024231048999542117,-0.5173189156066516,0.45201656835663634,-0.1836889032645668,1
73,4474,-0.0729338354424749,-0.6406116435317928,0.6094002044462357,0.24614307175540245,1
74,4475,-0.07206827781044241,-0.5957273538749175,0.4531496976051476,-0.07587923867252795,1
75,4476,-0.04573262635009157,-0.5939156868629141,0.7552345000338083,0.37841803192671,1
76,4477,-0.10899499527158667,-0.6368295918297089,0.7115117785152382,0.5327025488413322,1
77,4478,-0.05502823683612512,-0.48720936993901326,0.4610640825212118,0.301447455877758,1
78,4479,-0.013671160821380831,-0.4854235539066085,0.6770468558273124,0.5071914992726677,1
79,4480,-0.00909110669977817,-0.4252262607416091,0.3310755955165068,-0.5422331052091467,1
80,4481,-0.0247758946953402,-0.5509125595238092,0.4303306100802341,-0.6605349444356892,1
81,4482,0.019028917065598148,-0.5058383431653668,0.5184522261456772,0.029741400802192272,1
82,4483,0.02210028961275505,-0.3590451957552542,0.45855560149234953,0.35272763455273193,1
83,4484,-0.041390466437241424,-0.6891478524522414,0.5611873565496526,-0.24844018978935312,1
84,4485,-0.08005057077686094,-0.6378773050422284,0.7448352385546562,0.2097666852249264,1
85,4486,-0.06393184222354704,-0.6479920995001878,0.5019111879348093,-0.024268154188886185,1
86,4487,0.02694573125433235,-0.453027322845744,0.6677591633974229,0.46346116544782767,1
87,4488,-0.0008898200591479777,-0.3561101968021191,0.33307978254795645,-0.02860442110942247,1
88,4489,-0.05464396213290431,-0.48414496697083403,0.5458997059023005,0.1544745886794864,1
89,4490,-0.06472240131842817,-0.5800807919245017,0.6778512153534195,0.23296658270961015,1
90,4491,-0.06997185735007273,-0.5976709191126051,0.46784430357287776,0.0005886808483172676,1
91,4492,-0.0016404298406716277,-0.24523305100525467,0.2766102293022187,-0.2788402691766542,1
92,4493,-0.04844855575934873,-0.45899292287453203,0.4043045258630636,0.09427509812948985,1
93,4494,-0.015872451704616805,-0.4266665373059189,0.6036695460706658,0.6406072213219839,1
94,4495,-0.0009593109097109207,-0.18262221541873208,0.17016613061252778,-0.07570318944374844,1
95,4496,-0.023259191119201786,-0.5009720934042746,0.49964321309991244,0.04529516926335741,1
96,4497,-0.0051812676511975055,-0.6080639383063959,0.5704242006598761,-0.020751035389121056,1
97,4498,0.005573493024883231,-0.499184258436136,0.5625315180405356,0.08125794852093071,1
98,4499,0.017620128285458003,-0.6899807279415768,0.7515318455098523,0.020962032025090557,1
99,4500,-0.0847319592394331,-0.7863843743860819,0.609026791898168,-0.016675041662088164,1
100,4501,-0.13749742857202887,-1.5718431537445996,1.7660340376384855,0.28698483930854896,1
101,4502,-0.05799649897679143,-1.315441837001391,1.1610178351424738,-0.006812816135510801,1
102,4503,-0.06610196861089415,-1.1522236142318163,0.8703637171108138,-0.1454163733934103,1
103,4504,-0.1002660566012742,-0.9473294289013701,0.7285775558895231,-0.036582347304785746,1
104,4505,0.05687203838616132,-0.9512909451595299,1.6626371370685764,0.7236606758324832,1
105,4506,-0.06344316957129383,-0.713584096517516,0.6360149761459626,0.03033106385496524,1
106,4507,0.027293028786438578,-0.7639691021523469,0.7380235856593533,-0.09677657623422203,1
107,4508,-0.09741209404070156,-1.09916550595521,1.092529738548688,0.12673875491044984,1
108,4509,0.009050193391940875,-1.2480060031930558,1.7868124868833264,0.7536437624246627,1
109,4510,-0.1492611842948241,-1.1241122712185105,0.8768648994460353,0.1128026004231371,1
110,4511,-0.05020460984087973,-0.770125347514,0.6813545636981782,0.05627254029437792,1
111,4512,-0.041013304458167726,-0.698263480351965,0.8790637187098481,0.2937377635047623,1
112,4513,0.008454959970940612,-0.5276976078875479,0.5042952053405021,-0.018583771262338553,1
113,4514,-0.06887205380858215,-0.8045516515024578,0.7029838068086248,0.11152418685001297,1
114,4515,0.03797372576801083,-0.6506490700030844,0.9103922829846376,0.1873244265035507,1
115,4516,-0.09209706027771519,-1.0183824026954469,1.1784420825431277,0.279022369569055,1
116,4517,-0.0409785981065944,-0.9454104214400014,0.796950600953445,-0.12870374220619216,1
117,4518,-0.17551120471654677,-1.1947302926225238,0.9239852897961456,0.06024346879640763,1
118,4519,-0.12363818124610053,-1.1083545549153144,0.8676939754948245,-0.09005027439433241,1
119,4520,-0.17103335443402876,-1.1201511407512932,0.995828078215383,0.18805994682393176,1
120,4521,-0.12019079720636246,-1.2093135805739619,1.0503832049090742,0.20023318904839185,1
121,4522,-0.12185631867058792,-1.0905251867813002,0.9555621484180499,0.07219472465790203,1
122,4523,-0.20743024651072597,-1.2891716395190522,1.0606386992697463,0.1499215071508949,1
123,4524,-0.15299873570076736,-1.3415696149901764,1.1317587711479824,0.0362524757303697,1
124,4525,-0.21405308561463066,-1.6364972281394394,1.2813598654679992,0.1580011008006433,1
125,4526,-0.12984371073959075,-1.4004074821929497,1.2997161086421936,0.007870134176326208,1
126,4527,0.018337039488224488,-1.164536145979771,1.1581155834457943,-0.13197594754525765,1
127,4528,-0.17525626359196447,-1.865479153380814,1.76496895468465,0.22539997875939188,1
128,4529,-0.24747800702757192,-2.1603808739278234,2.13634289777234,0.10800873867713606,1
129,4530,-0.2691374698162082,-1.677505330775457,1.3625277034040875,0.12989720763963505,1
130,4531,0.07375948452165046,-1.06032763236888,1.0898156473062333,-0.15194958767536038,1
131,4532,-0.13762480526212603,-1.6710467595279672,1.5609993484498408,0.23356356669624817,1
132,4533,-0.16167597071014142,-1.3839299618769612,1.1364733984950766,0.10674853752168972,1
133,4534,-0.02078311722182407,-0.8382597116869163,0.8522132126005818,0.03219129200279457,1
134,4535,-0.08596042995902793,-1.0224707951383503,1.0278658557764961,0.21831449962434507,1
135,4536,-0.09675880190294615,-0.8681057026885342,0.7577011999281411,0.06426856485687654,1
136,4537,-0.12444324639667724,-0.9198146777570024,0.7074266819947772,0.06088746030581389,1
137,4538,-0.08755190466066941,-0.8847732397254044,0.8736132907915617,0.08975232424955872,1
138,4539,-0.0666345265131615,-1.028696189722052,0.9567017184701225,0.07365852073606424,1
139,4540,0.029909389483040755,-1.085909120625785,1.5817143805007985,0.6983943616444171,1
140,4541,-0.10885063851619799,-1.093398186524247,0.9401148411879712,0.15075765227069418,1
141,4542,-0.05632821656478417,-0.8861345770737247,0.7798141449860021,-0.06499531192384808,1
142,4543,-0.17954637382138983,-1.160576389561981,0.9624471968581532,0.14717798377525962,1
143,4544,-0.17048213473649057,-1.1188234459428017,1.0409897065402745,0.22191743607242975,1
144,4545,-0.11235055733975226,-1.0681511576701825,1.0327449714081176,0.1343585571326849,1
145,4546,-0.04714128945623922,-1.2284946550255023,1.4550737111238923,0.34837461120425306,1
146,4547,-0.16713453395205483,-1.3729995763903644,1.3328921239245048,0.18088798299678305,1
147,4548,-0.09289579681762472,-1.0773235197307982,0.9593755100768886,0.05493985124895553,1
148,4549,-0.13423284786465775,-1.422582348933739,1.0412619464210522,0.011876186241164082,1
149,4550,-0.06729273017971754,-0.8499317997231947,0.7456489430198998,-0.030261929291800296,1
150,4551,-0.03941685150690061,-0.8938784761260145,0.7647663620764955,-0.012378389478414966,1
151,4552,-0.019284234419239744,-0.871464734769918,1.0317905537558696,0.28920806576515146,1
152,4553,0.034417909205978654,-0.7238868016484772,0.6944673121413752,-0.12796793582736804,1
153,4554,0.026779143922979573,-0.7643011228944165,0.7399575411986634,-0.10751473426172062,1
154,4555,-0.09602426253694181,-1.021025778497463,1.0338828845180732,0.15552211763676432,1
155,4556,-0.0624481561082589,-1.2631364908088032,1.6683925945578093,0.4151218182204261,1
156,4557,-0.2242973768069185,-1.5484828649786828,1.1386361841757187,0.08578362776489222,1
157,4558,-0.10506302311185896,-1.242900038000999,1.0755875845642766,0.12447448879984573,1
158,4559,-0.040045912573973816,-0.971180384316332,1.2476067451562733,0.3841193921457447,1
159,4560,-0.1682011988196286,-1.3019183289468272,0.9611159238308218,-0.15768725173879003,1
160,4561,-0.1119518367198814,-1.004127099776508,1.0051749701214467,0.09642464739379455,1
161,4562,-0.05832853702445295,-1.178465756556553,1.3272964640822429,0.34016937055040963,1
162,4563,-0.0491489367012195,-0.9283065995455716,0.9006617989669916,0.08307488093071282,1
163,4564,-0.10056622795559027,-1.1141150333536727,1.1755954337720402,0.20503107766319334,1
164,4565,-0.11628619821476725,-1.1624819061658118,1.0405421152189505,0.06513534049110442,1
165,4566,0.07121602909045681,-0.9859548652703529,0.9243970993140627,-0.17283286588659705,1
166,4567,0.00908775149428223,-1.1325947860901207,1.032230460034219,-0.12152190478769014,1
167,4568,-0.10089223678949323,-1.2220256613635647,1.4818737922894338,0.2661314857655476,1
168,4569,-0.1492286366973596,-1.3388550494913243,1.181249014196184,0.08548932515371159,1
169,4570,0.015050236064569013,-0.9724553087475685,0.9230766312541699,-0.11265488883918176,1
170,4571,-0.09814458911668449,-1.1689498693122453,1.3612594275835148,0.21023677906673577,1
171,4572,-0.15328828121661356,-1.3522353181528635,1.188801735481455,0.09958655396610806,1
172,4573,-0.23884591407733205,-1.54116950956432,1.2181359929795508,0.1286799116438105,1
173,4574,0.013135363677678003,-0.9505437326039151,0.935503877242186,-0.12518622032782664,1
174,4575,-0.10174865639598778,-1.3907296878115099,1.5492847775503775,0.2600493751709279,1
175,4576,-0.14790949199772066,-1.345645706522423,1.1868902514929172,0.09330698842737367,1
176,4577,-0.18592520281649094,-1.5793764404102189,1.2862080659506359,-0.05962761251485047,1
177,4578,-0.14540331591794148,-1.6926196115100174,1.2511712935261827,0.027255960965676146,1
178,4579,-0.08004039657770362,-1.1649804624187774,1.2798894371965883,0.272301247433329,1
179,4580,-0.1049040448023257,-1.2411438591202728,1.3571093350933587,0.1896923955830524,1
180,4581,-0.14376751877842572,-1.1153999060557565,0.9028331221969006,0.10404195116139713,1
181,4582,-0.2151304253453575,-1.2320598007410677,1.0814221164729285,0.2016770307425715,1
182,4583,0.03763006196458935,-1.0337251804237118,0.9677828042127262,-0.0768438540709237,1
183,4584,-0.2043339308979825,-1.4045759636837596,1.5508496617839813,0.2924508072015744,1
184,4585,-0.17860915330187202,-1.630346464033257,1.8072203144736076,0.25993824613689437,1
185,4586,-0.15076548914053792,-1.610329005545144,1.3100884461675246,0.0413728705122162,1
186,4587,0.05077708182029871,-0.8533352560512415,0.7825896089210811,-0.15709487090851262,1
187,4588,-0.14457012703742878,-1.2209586661799796,0.9439373854871912,0.08009246931338679,1
188,4589,-0.19904646626899206,-1.2991959535024205,1.1898587499608193,0.19196553483195825,1
189,4590,-0.17236259047646188,-1.5753575518145784,1.6262842154674892,0.23367445245717472,1
190,4591,-0.15182325588515944,-1.4425671904077086,1.1896087335497474,0.06055139085080982,1
191,4592,-0.23722992899160453,-1.3945347325802255,1.045240812203722,0.15857959641372607,1
192,4593,-0.15151062363574716,-1.338668891708747,1.018468227579932,-0.06334676546913982,1
193,4594,-0.10216616970868801,-1.0650273168681414,1.0344072040552401,0.1439338644223956,1
194,4595,-0.09087279560241075,-1.3364966298335903,1.3609539794796444,0.20965023604321964,1
195,4596,-0.1640940416268775,-1.4494925108984926,1.1433326558785821,0.06392674808772005,1
196,4597,-0.19290725962634814,-1.5914810132928423,1.6293179409366219,0.19269204232572662,1
197,4598,-0.1535159089228614,-1.459359067149864,1.578196590340304,0.2438747621183818,1
198,4599,-0.21038922462727686,-1.4902322730455335,1.2525548883889102,0.14586706442897998,1
199,4600,-0.22931065505281092,-1.7575770741826025,1.3054924746422982,0.01964504585520717,1
200,4601,-0.09885670422271083,-1.4852401109360218,1.4275876204533988,-0.04261381801542433,1
201,4602,-0.14934764139955506,-1.4242677680953368,1.2612871816588265,0.02938823636813972,1
202,4603,-0.06803725329654574,-1.795146810892231,1.8264599989734118,-0.09233733207267311,1
203,4604,-0.08911914544062378,-1.1748051992088506,1.0031296180506533,0.1312223316244486,1
204,4605,-0.03988019373647308,-0.784347313261017,0.7323106551965353,-0.003911402669248565,1
205,4606,0.01938033650559457,-0.7959934852006171,0.7331842023795074,-0.11057790329356315,1
206,4607,-0.07855999358714096,-1.3012492132004698,1.0955527550440254,0.06848846417990241,1
207,4608,0.03898461177463907,-1.3043841625156858,2.0547314995173274,0.5371976656926736,1
208,4609,-0.10943330139370581,-1.1854200711893466,1.2032327950259685,0.13440087886293994,1
209,4610,-0.08996616741431991,-1.0267401532096894,0.947539884255356,0.04313228305094963,1
210,4611,-0.024436059499765652,-0.9954145184191584,1.1136828812613118,0.03861183460754139,1
211,4612,0.033372240284075566,-1.1210588484721051,1.3003179843057127,0.22940999201333975,1
212,4613,-0.12467674426762003,-1.494582946563898,1.4168390028716071,0.031559482488584686,1
213,4614,0.04910188973936865,-1.7388772590758197,2.795875128087276,0.5922814317104177,1
214,4615,-0.10181521787448217,-1.2604983329546315,1.1050450219114705,0.07625659979365887,1
215,4616,-0.0875567169987379,-1.4436405354830204,1.2576215894843799,0.04776940752802143,1
216,4617,-0.0713923844193583,-1.0946573404877402,1.034653969950133,0.001193518600119128,1
217,4618,-0.1194589906612778,-1.371683132263112,1.0530917433808653,0.019006485678720854,1
218,4619,-0.048252252146439495,-0.9313528814716517,0.8074738610018226,-0.018858492302044547,1
219,4620,-0.12512086837362177,-1.2336229786453121,1.3172928320881672,0.0937404400508989,1
220,4621,-0.11636772871953517,-1.4537350736583892,1.4801345580551089,0.09767685246779745,1
221,4622,0.029310589816121113,-0.8414404320050044,0.766515962089521,-0.06678546077847827,1
222,4623,-0.02357214489693175,-1.4040192154632147,1.0447783081727597,-0.1701163841320231,1
223,4624,0.07356351533834483,-0.8794521409638718,1.1392519948678128,0.0729959719532203,1
224,4625,0.1437126614574884,-1.6093664262207108,2.8542183464643363,0.9449103026154484,1
225,4626,-0.093992525897978,-1.3997997731937089,1.4145962041457323,0.06985507569741409,1
226,4627,-0.04934488243659463,-0.9709971402708767,1.1726473919439555,0.22144969472751772,1
227,4628,-0.054104254749772894,-1.0296731084943485,1.010263589691929,-0.005174721179505207,1
228,4629,-0.09719731743196776,-1.5258593917183532,1.359693201879086,0.008522703359707732,1
229,4630,-0.10334007804482315,-1.1923209260583936,1.386534713199071,0.21024977919508547,1
230,4631,-0.0747038031573412,-1.217974185549719,0.9909925837047304,0.03805416327049311,1
231,4632,-0.09934471335597327,-1.2984757870778711,1.2931730305485658,0.13468077264644565,1
232,4633,-0.11052346967244131,-1.4126985602588351,1.3844087584664144,0.09661594488477666,1
233,4634,-0.12653540875281857,-1.4359633060075114,1.06322236013242,-0.04070017423886493,1
234,4635,-0.04763570179645027,-1.5455919521629304,1.7967881360731206,0.11725737539332141,1
235,4636,-0.10545688434238241,-1.6115968361130935,1.4868739590343356,-0.022861322256704286,1
236,4637,-0.1999538653992714,-2.395407586149117,2.247938017344529,0.052966224022281926,1
237,4638,-0.4034219731034108,-3.6064538568966302,2.2257136149470247,-0.3966822398897496,1
238,4639,-0.10264488486735446,-2.1706832040992707,2.088658199315786,-0.07245407672512166,1
239,4640,-0.18850829622447987,-1.5980613717025358,1.6001793651864533,0.3206998440148246,1
240,4641,-0.08200453290510412,-1.8209455542281727,1.680894809357706,0.13336497803940323,1
241,4642,-0.017261848382450467,-1.999641104571573,1.7831566104722145,0.007872858334260031,1
242,4643,0.001113764766444425,-1.3602444656481092,1.335541412477371,-0.09432918766459852,1
243,4644,-0.02818534152618136,-1.343045188739994,1.185249894996025,-0.07117128411564837,1
244,4645,-0.1913980193864704,-2.0524228065486474,2.0095890913575234,0.13341969845708548,1
245,4646,0.04683221219697855,-1.2227034127860759,1.1416596906010374,-0.04184322819480513,1
246,4647,-0.08705068010369649,-2.0930761389057055,2.085832612884712,0.05723739956433597,1
247,4648,-0.11811191206495035,-1.71887125656986,1.7796828169938983,0.018533478213377946,1
248,4649,-0.06268590374807027,-1.4298523418606668,1.302354398864813,0.016538459241599555,1
249,4650,-0.140740938697518,-2.14866352458208,1.3525461653370527,-0.39112506186901946,1
250,4651,-0.05899095935462215,-1.1863903006043865,1.1041167730310615,-0.03210147010104192,1
251,4652,-0.061701502432483436,-0.8749768607610817,0.7125178199186677,-0.03911139304645102,1
252,4653,-0.01977247370191385,-0.9994022859525562,0.964546636989272,0.02333196370209817,1
253,4654,-0.0028856003990275145,-1.1582851528311007,1.1693213916354257,-0.014614249525164564,1
254,4655,-0.2988085870431962,-2.781306338295903,1.3785658592041152,-0.8770394924437053,1
255,4656,-0.09456277815408425,-1.1581284160596268,0.8940009230501071,0.09957410710505733,1
256,4657,-0.11869170412325541,-1.132644176470748,0.9869919892226799,-0.01656288751765366,1
257,4658,-0.04777040855894336,-1.1538987598316275,1.1963681176719652,-0.012259259871884183,1
258,4659,-0.05978389318124622,-1.7425281524818845,1.8853180608108429,0.0822130864283986,1
259,4660,-0.08037931382561593,-1.6079658829291505,1.3907996166535763,0.009180998165989471,1
260,4661,0.028951789085215267,-1.0377837805853385,0.9362790178534673,-0.07501557855020181,1
261,4662,-0.03907020771443578,-1.4953917612667071,1.1409464043368893,-0.10701532609447664,1
262,4663,0.006109741491079078,-1.384421869717174,1.4943099707696206,0.3302464194182373,1
263,4664,-0.0869504312283972,-1.1287070706570006,0.8153643312681084,-0.5352426145086255,1
264,4665,-0.015948078486896805,-0.5587061233669124,0.48484101802386503,0.11157843741404116,1
265,4666,0.006621016631900403,-0.5350770648667372,0.6156665772100853,-0.03130468402133863,1
266,4667,-0.1538086898687149,-1.845678696046198,1.2739152203518276,-0.2048479617087967,1
267,4668,-0.0518041786566068,-0.9607311505062481,0.7525045699937896,-0.19566389124878836,1
268,4669,-0.06234995123743165,-0.9607191781575841,1.1679267642581388,0.20639016260741844,1
269,4670,-0.04048998162023991,-1.0226632816554546,0.9421741127030085,-0.0468526877934967,1
270,4671,-0.13164958409161961,-1.3954667405047898,1.1541489454278522,0.01604877468836584,1
271,4672,-0.06086987439224739,-1.5772088006355462,1.3089483000070778,-0.03906025251509201,1
272,4673,-0.02189322645486115,-1.1116044851927063,1.0256961079493307,-0.03564450350982952,1
273,4674,-0.07560575545605108,-1.4097308257215548,1.4478057918971916,0.1757006459984357,1
274,4675,-0.013805435209112893,-0.9535693942955765,1.0874055487629803,0.23359558930428762,1
275,4676,-0.08534320691091689,-1.006749875216226,1.22245643411064,0.13318073282095358,1
276,4677,-0.037169459089043476,-1.0210013904086757,0.8904724975243739,-0.018626753234455232,1
277,4678,-0.04473916160760529,-0.8800820827132041,0.7458258442869183,-0.10947953588584289,1
278,4679,-0.07994783464355484,-0.9680616383405487,0.9064004573971453,0.1330700892875743,1
279,4680,-0.149440263181129,-2.3781116724885973,3.1030089784670336,0.251306681906311,1
280,4681,-0.002530406808272389,-1.0123013272661066,0.9450025574522809,-0.04679825865128166,1
281,4682,-0.035839266921064115,-0.7145046960316479,0.6256549454803237,0.10044857990056301,1
282,4683,-0.046590755557081226,-0.7598427769993437,0.8365898964230518,0.09758380510020447,1
283,4684,-0.152137369659816,-1.6221103131850558,0.7809584039817636,-0.9556358287446935,1
284,4685,-0.011014890097415487,-0.6305635824450592,0.6278032494776509,-0.08475823688199098,1
285,4686,-0.08704077132652772,-0.7076444883911688,0.5759281466263078,0.17725934299228177,1
286,4687,-0.04854451825755599,-0.6539236875677008,0.5936550846267612,0.008722256675004491,1
287,4688,-0.009210657962442368,-0.7527961622733303,0.6816569217926051,-0.004802423221408583,1
288,4689,-0.06330636118836361,-1.0453662123622005,1.3039055651933875,0.21934488135605468,1
289,4690,-0.09771218151431356,-1.6632245119039601,1.3749198551252397,-0.19510373561625366,1
290,4691,0.03024925777586067,-1.2877420771515284,1.3212714212808718,0.013370663710073,1
291,4692,-0.14063617220825997,-2.0214498392133273,1.2907278407473692,-0.4706205415648429,1
292,4693,-0.11697542644682231,-1.335006677610422,1.3875241763698176,0.2701382345900497,1
293,4694,-0.01958123084339873,-0.8961655679420246,0.8889035292122771,-0.0023336095234572636,1
294,4695,-0.2523094260706384,-2.420384009771004,1.485961121639503,-0.43537328139991655,1
295,4696,0.07298778091034074,-1.3556367903856463,2.4592779659173845,0.8631819470222273,1
296,4697,-0.0710045194744008,-1.119882690582072,0.940376315530179,0.004467551109832921,1
297,4698,-0.05494716745896027,-1.1413891419138467,1.0744521226512258,-0.05270591986898329,1
298,4699,-0.08036500519535932,-1.6042590000138826,1.3746124547110852,-0.081536986606828,1
299,4700,-0.08665388555868027,-1.7785820835579318,1.6949297722926273,0.06407650080449385,1
300,4701,-0.007896139848471406,-0.4194052785178181,0.4360965030619679,0.15021767340002246,1
301,4702,-0.019071673940101546,-0.2398876079021747,0.2754407763828791,0.11982681818338388,1
302,4703,-0.02113382866121384,-0.276418078408207,0.32609960701342466,0.0036445661605316888,1
303,4704,-0.006429627863047252,-0.28669192101977947,0.17491161286578888,-0.6063623171892226,1
304,4705,0.010645026209862343,-0.23535601907565795,0.31784568934069646,0.5120733253910016,1
305,4706,0.0016641562722327756,-0.2384642674565195,0.26161858238932234,0.37011712413990844,1
306,4707,-0.002788548530640488,-0.20949443134854234,0.2229825839634641,-0.417043754490712,1
307,4708,-0.006544862246882069,-0.22046812977710278,0.19529870192009194,-0.6311186322503477,1
308,4709,-0.010682329573467394,-0.20729199928678765,0.23902642661128848,-0.10991440884201824,1
309,4710,0.004107726971959154,-0.25598640166854225,0.2747558912606165,0.1765698536991436,1
310,4711,-0.0003141007349564642,-0.20589831861918886,0.1654062222824453,-0.6144487600586767,1
311,4712,0.0005643832632812178,-0.11669602118364214,0.13301128227513892,-0.10553092090078159,1
312,4713,-6.974796043559823e-05,-0.14669831651534343,0.14284523745428598,-0.1657330771551556,1
313,4714,-0.012592522714654539,-0.2908046598236958,0.2698959270194433,-0.1160087889313242,1
314,4715,-0.015308218445283114,-0.22413758312132231,0.2346294651198279,0.13497597894421273,1
315,4716,-0.02435950826736431,-0.2865933868714874,0.24042403209909113,-0.12302275510042657,1
316,4717,0.004073119751553587,-0.18080739438276422,0.18214952130671763,0.6076713969520248,1
317,4718,0.00030595659380483416,-0.15584270421969074,0.1447801847116031,-0.05583362157471096,1
318,4719,-0.004840438900513507,-0.23047244768097314,0.254938847711453,-0.14991625572819162,1
319,4720,0.0022631602913506755,-0.17825368803139618,0.15518057307449795,-0.20188808508987469,1
320,4721,0.0012738008579009266,-0.11948191635495496,0.13181630911828132,-0.08933763351052683,1
321,4722,-0.02652684334720301,-0.3098198246082642,0.23495160938904824,-0.21630465323312792,1
322,4723,-0.00205182952131202,-0.19753395832870313,0.20316714503214667,-0.015713358990474303,1
323,4724,0.001799050079367688,-0.15589706890317506,0.16953421557096857,0.0424246126307599,1
324,4725,0.003548464139855719,-0.2628960631562195,0.23834673296051362,0.08561125801696377,1
325,4726,-0.0007654089798841008,-0.13636036986485278,0.12793898519302394,-0.0022822051643764402,1
326,4727,0.00429323888111353,-0.17283404510874206,0.16732291252483358,-0.043539144172873384,1
327,4728,-0.005103155210083668,-0.24571318446304052,0.25592377613388495,-0.2154666428459364,1
328,4729,-0.02081624794935862,-0.2688712619850853,0.2132637473924225,-0.5794849570718859,1
329,4730,0.0003084709609522299,-0.15026226847014684,0.16030779551354132,-0.1906722019192874,1
330,4731,-4.485866750309437e-05,-0.13312768329709956,0.1405947682891409,-0.06003942021912145,1
331,4732,-0.0015705631496777022,-0.21698951518513254,0.17262400389633215,-0.34790155962273744,1
332,4733,-0.0005894131880728135,-0.1262618566600173,0.1329536766279918,-0.03187052076910169,1
333,4734,0.00394554896044745,-0.2023569659717756,0.22074580782252087,0.49894209602460865,1
334,4735,-0.015740849202836638,-0.3551455744886247,0.2874080764944588,-0.8677428562198972,1
335,4736,0.010804211642672035,-0.35649513640137576,0.24089886968623475,-0.34785371466170933,1
336,4737,-0.041221119875023686,-0.4026955939493053,0.3261099132088114,-0.09277714547550935,1
337,4738,0.0008015279393508769,-0.1391225892153115,0.1446032036535922,-0.11758110151539514,1
338,4739,-0.012562629152387346,-0.3844053200043356,0.30256822375719705,-1.0025293951160235,1
339,4740,-0.0004287048759259691,-0.1374497834960932,0.14323258601843916,-0.1305507968189527,1
340,4741,0.00048629598319121077,-0.20075511392667494,0.2389040725832977,0.4364262902919296,1
341,4742,0.0006167553317682329,-0.13130696969449415,0.14165991776332637,-0.19003337873760648,1
342,4743,0.00032486032340899967,-0.11711650294894747,0.12112995267283129,-0.1626359211049214,1
343,4744,-0.01423339554193614,-0.24773936189101128,0.2910549351555577,-0.03914401139914854,1
344,4745,-0.001725453151884249,-0.2057069321244513,0.23688836024285687,-0.30448762821875447,1
345,4746,-0.001449920101323952,-0.25529455998086265,0.23238543862744687,0.009617952014734976,1
346,4747,0.0043252124404574216,-0.2598189111967797,0.28050838162373865,0.36428804368178924,1
347,4748,-0.001908890862814615,-0.24788804291767724,0.16767717487050665,-0.848960255177174,1
348,4749,-0.0019285212658409698,-0.29580918005881324,0.2744254870352544,-0.39997566443183763,1
349,4750,-0.007625282876401927,-0.26231156036659375,0.29653306915103594,-0.053211618871881125,1
350,4751,-0.0003813920836981877,-0.1408310017835599,0.1425386902761046,-0.12434534613929452,1
351,4752,0.008427803339642203,-0.21296033648856472,0.2859791222739161,0.8789803917283973,1
352,4753,-0.0015135911708006528,-0.23480629691502486,0.23291341218195902,-0.15542541479882016,1
353,4754,-0.013679507578497846,-0.40151132506443604,0.2919100905243733,-0.46501192457635543,1
354,4755,-0.011215782221517376,-0.23497459303805823,0.23879903672019717,-0.38673920389734234,1
355,4756,-0.009982499483735828,-0.32862978953235755,0.27731214700951096,-0.31202733612230993,1
356,4757,-0.010750771152867355,-0.23725145811507212,0.2733993109357868,-0.20327431223299178,1
357,4758,0.009228556159494253,-0.29353851616242377,0.36282082654193004,1.0428219257688867,1
358,4759,-0.006946738892159819,-0.2953044893440685,0.2761884041757471,-0.3039286787381775,1
359,4760,0.002255505460868818,-0.17228108331095493,0.16389848113843505,-0.19180193544862612,1
360,4761,-0.0023571452121948075,-0.15653841650680161,0.161908935616337,-0.12779854536627355,1
361,4762,-0.0008883362638931689,-0.1620044677439802,0.14407708158879207,-0.1238316469127336,1
362,4763,-0.028320130516220444,-0.4130163445734729,0.3333464985387875,-0.45343114722778805,1
363,4764,0.0008945313084860186,-0.1597320132363737,0.15951122748890964,-0.19598351024930857,1
364,4765,0.0001475069651616129,-0.12882894633954034,0.13921096529177795,-0.10329347399434238,1
365,4766,-0.011807219777709349,-0.4002080041775209,0.3445206237442233,-0.5232291738242351,1
366,4767,0.0017935533340586807,-0.14896387969931218,0.16291891684227877,-0.14522764610204378,1
367,4768,0.020747507960285547,-0.3066022562996588,0.41200501063556133,0.25285989442194357,1
368,4769,-0.018881807969690707,-0.33395760766889043,0.30352119544650324,-0.008476042430236277,1
369,4770,0.0006588005811445557,-0.08643020093158736,0.09104644473148465,-0.23219556478913905,1
370,4771,-0.0242247083258242,-0.42122288391179447,0.29325263116107325,-1.6081294641879682,1
371,4772,-0.006441353588994313,-0.25737685687897127,0.2744828900755434,-0.07870662141037738,1
372,4773,-0.029857275348172996,-0.3801024430868869,0.34632378114581885,-0.09758571642517608,1
373,4774,-0.011994868825938679,-0.24526406617054186,0.27961872535221277,-0.03842828529418199,1
374,4775,-0.0009782395186726431,-0.13459891516116357,0.1472708381348313,-0.08148735895110924,1
375,4776,-0.009586823587072298,-0.33152967787730997,0.2997864263274208,-0.22154487875138737,1
376,4777,-0.019125722148551346,-0.37944682220147474,0.2877178857006468,-0.7569296361520912,1
377,4778,-0.012182241424437254,-0.2518039685973283,0.30668231235902566,0.19259383731797122,1
378,4779,-0.013615947979824254,-0.230949863946583,0.287283286618519,0.01625265460150147,1
379,4780,-0.004512419599081377,-0.31162717919811656,0.28510556022846517,-0.3155422917530797,1
380,4781,0.022416794992069982,-0.31868581379227784,0.3557740483339551,0.41967041015143847,1
381,4782,-0.008645251359260404,-0.2944889623321695,0.3109475381781937,-0.0021980408041824924,1
382,4783,0.002622042855583562,-0.2695139150839378,0.27207984887724257,0.25371507775476587,1
383,4784,-0.0017402752836377818,-0.29826625303784354,0.3973935767623292,0.1671844574818253,1
384,4785,0.006949248207381051,-0.16018074053004067,0.1761020212010015,-0.1097409991393726,1
385,4786,-0.012604370289815486,-0.2509068188351934,0.29343623686632514,-0.06479327536993622,1
386,4787,-0.04361459336980816,-0.4220525307606652,0.33686236563054417,-0.049948760907729206,1
387,4788,-0.02128171263011699,-0.2790744814927745,0.3197943354903316,0.08659681184694533,1
388,4789,-0.042513028311533675,-0.44802849973480974,0.37254589306832864,-0.24246057057048287,1
389,4790,0.004906895736834771,-0.3065183026640582,0.304891498981283,-0.06984105872170054,1
390,4791,0.0011717604909262322,-0.19420927730305224,0.17564025772780528,-0.2528219265747128,1
391,4792,-0.01100319916309348,-0.23432616102420123,0.29946883113204015,-0.22272478450917252,1
392,4793,-0.018259790998061704,-0.41158672016171927,0.372732790890133,-0.17955332785473604,1
393,4794,0.003565150846971742,-0.18047178560834726,0.18200530951264846,-0.3117168014265419,1
394,4795,0.0004804378690055762,-0.14194377534676816,0.1367007367510666,0.015006326663741486,1
395,4796,-0.007279153087086415,-0.304511975860835,0.27169251319105636,-0.2837317486292382,1
396,4797,0.0037712906853128534,-0.14860098177996928,0.14813916727722864,-0.18579027505353282,1
397,4798,0.0015800387275448347,-0.2686866250592925,0.27209416669999686,0.002420627143971529,1
398,4799,-0.026630388192319953,-0.2771155021369316,0.324260770596702,0.27578067183693883,1
399,4800,0.0062894554150588556,-0.31196874835874494,0.3731699901803267,0.16208281420616927,1
400,4801,-0.03285420364614428,-1.1497163797604586,1.2727781274751628,0.1595108961322083,1
401,4802,0.037331827967186135,-1.0519481308995644,1.2381314059149986,0.2721823172668288,1
402,4803,0.034478120916824666,-1.6775030980126893,1.395267758821909,-0.3897069050730549,1
403,4804,0.008688759270152661,-1.8504154624888036,2.587140517048075,0.8488086130059646,1
404,4805,0.022540046425303006,-0.6330366169889942,0.5754593057006208,0.1830662269998457,1
405,4806,0.020467781984312344,-0.49842254704598826,0.512536247891179,-0.01898269039424712,1
406,4807,-0.026941993042034557,-0.7271036818654104,0.6305427752537147,-0.06379798623001984,1
407,4808,-0.10561578604055703,-0.9847012649844905,1.1896302830927625,0.3358747572898875,1
408,4809,0.08821238570855126,-1.119188184796736,1.8475704791416585,0.9320855030108253,1
409,4810,-0.1099260789828997,-1.0990330321679564,0.8345169165459457,0.003368622305360336,1
410,4811,-0.1728256678128888,-1.0616782091400847,1.0015189006118486,0.4028080862876731,1
411,4812,0.0025376725578287376,-0.4780096693595062,0.4644098830162221,-0.002462001108412864,1
412,4813,-0.05900390201824765,-0.8535107056893966,0.70236774336879,-0.08421294288883059,1
413,4814,-0.0924466460692227,-0.8000653362146658,0.6071550087269615,0.08319811842101875,1
414,4815,0.06640709633851206,-0.7595455794811345,1.0936502123364957,0.5427276553557061,1
415,4816,0.024624048265346313,-0.6543970622196211,0.6330116653792369,0.010751215510016121,1
416,4817,-0.015757151344172285,-0.3765669881306253,0.29898501816854545,-0.22101905737686584,1
417,4818,0.0016708069549428624,-0.2626156213141907,0.22915455307550436,-0.08295078845941989,1
418,4819,-0.09873284212817068,-0.8517436316694613,0.7236631312010614,0.12937578832851818,1
419,4820,0.04479049126321653,-0.7786886946045357,1.1903296468935534,0.545006982785179,1
420,4821,-0.034180381444871226,-1.05098901166274,1.1089576654873299,0.2153904765721663,1
421,4822,-0.001856975439260767,-0.29319168632095527,0.3398722171628271,0.23791751598660044,1
422,4823,-0.04766318192759181,-0.7562208074418844,0.6494221672994269,-0.1628148321461359,1
423,4824,-0.11450989866141381,-0.7999112048014778,0.9605988769581064,0.4297631795729474,1
424,4825,0.015906420059109375,-0.6522112878893137,0.6087059098834589,-0.2729470690282171,1
425,4826,-0.08506092502906988,-0.8750898846812241,0.6690193109655227,-0.01802101399231446,1
426,4827,-0.0001479755915493594,-0.25468583679055146,0.2351788046060708,-0.24431982379753775,1
427,4828,-0.035357216763421066,-0.6789255679032364,0.5640708222715969,-0.13486257168063603,1
428,4829,0.000787181929942179,-0.5781889923696228,0.44885940908439154,-0.32071743029348126,1
429,4830,0.037270338141712094,-0.6211428473755637,0.8893132207179809,0.5154830827562156,1
430,4831,-0.051432596296980604,-0.8150373066076657,0.6606196425252725,-0.07660682685260294,1
431,4832,-0.11439921793126578,-0.856284525368352,0.7512000492933368,0.3006842723118683,1
432,4833,-0.056934584961467104,-0.7523490629507575,0.6229258796886146,-0.09434581737443005,1
433,4834,0.027353580478359684,-0.4583495548325857,0.627007304411888,0.19662038837763912,1
434,4835,-0.07533847876651706,-0.8535669743078328,0.684275053692755,-0.06198050056035267,1
435,4836,0.009115607916236593,-0.47538702823182716,0.5314947175462272,-0.10319080920174187,1
436,4837,-0.09097482694589305,-1.114250242568557,1.35014916540475,0.3689614941034479,1
437,4838,0.13541522238298578,-0.8343517612974779,0.938867815557292,-0.12318553872952989,1
438,4839,0.055323664719351795,-0.9140270316547485,1.0652707788306108,-0.14401427814002582,1
439,4840,0.17994744933634846,-1.0076341393118287,1.017415948761347,-0.3636776583382754,1
440,4841,-0.334722757717643,-1.8191111679979108,1.3420602349377555,0.2046084801121652,1
441,4842,-0.011944815143807047,-1.4307530696765367,1.0863205874394861,-0.4554508321822249,1
442,4843,0.1024190218090909,-1.1678108896051413,1.7440934906925707,0.7188440978862125,1
443,4844,0.008203106822697238,-0.5962288234671482,0.6685703185990792,0.08490063930096708,1
444,4845,0.046657016110723655,-0.9004260478549234,0.901440015147362,0.20131191913856483,1
445,4846,-0.13662540471338674,-1.2163292286106557,0.8779277316176274,0.023522268739823157,1
446,4847,0.0051267813221605295,-0.6387196716219695,0.7695876589156027,0.01918072552255399,1
447,4848,0.0594849180564625,-0.9621408403104483,1.090358351914396,0.14212431324457164,1
448,4849,0.10271086740674666,-1.2948315411755762,1.2179790369497232,-0.31451857523578713,1
449,4850,0.013696332246847631,-1.628900410585745,1.4417928945828424,-0.0201911817675326,1
450,4851,-0.1389817407469034,-1.568439872930706,1.334716629754477,0.2067569322038487,1
451,4852,0.11572208393938183,-1.07569125269714,1.8554553147373816,1.1795983901314786,1
452,4853,0.0057190361536989184,-0.616886089687456,0.5388710116639229,-0.14031585072232416,1
453,4854,0.06612776922987018,-0.8782705285428625,1.4779156702183247,0.6877462605161279,1
454,4855,-0.004798402084151841,-1.0351541044863488,0.8895601091323868,-0.2674132868330116,1
455,4856,-0.09121448957343277,-1.4465918381772729,1.5606158467852056,-0.04141251225277591,1
456,4857,-0.188750944539681,-1.9275006185815808,2.2196497033772733,0.2979983596336342,1
457,4858,-0.2817295601436775,-1.9503587093898018,1.502320006173597,0.07364383065657702,1
458,4859,-0.23502308185768392,-2.1472791389027392,1.2454982057882447,-0.18859298345997846,1
459,4860,0.049015407379961656,-0.7687625850570399,0.8557843057233713,0.20012577194286912,1
460,4861,0.0439540820197851,-0.9347484762635148,1.0755743607762582,0.11416873850863439,1
461,4862,0.02379671528567931,-0.7626668989227579,0.8288697739777238,0.11526755005899261,1
462,4863,0.010419780653577819,-0.671755322329725,0.6083607119175767,-0.09654688197168083,1
463,4864,0.010665326587440432,-0.7929556412043912,0.9137240903665027,0.28483521431353237,1
464,4865,0.03756843159849436,-0.5167609385222777,0.5715943058556987,-0.24784425988736933,1
465,4866,0.01836539951384873,-0.9281860202018231,0.8823296918423625,-0.18936257096907763,1
466,4867,0.005036061929647159,-0.41962969235606407,0.4586724913315767,0.13472028164171343,1
467,4868,0.0588865168784636,-0.55520195202966,0.777395090480036,0.2719114478617367,1
468,4869,-0.003395103272422843,-0.36477962017391563,0.3129975679112095,-0.16044616353269273,1
469,4870,-0.000732714407905176,-0.3172643080451837,0.37368708946859563,0.26033779316392636,1
470,4871,-0.0072324943225735095,-0.6233894240933988,0.5492359821949114,-0.15202818304889407,1
471,4872,0.07384491458552007,-0.6585353228677929,1.0867490932257877,1.2870466559779477,1
472,4873,0.04950628000827933,-0.43707786217676853,0.43711365118382633,-0.0030553384549508495,1
473,4874,0.018021095504233125,-0.7544279741915862,0.6342209380110272,-0.5654000844837417,1
474,4875,-0.06643465829455653,-0.7470073682498537,0.6119455566489768,-0.011372357460885775,1
475,4876,-0.06678766934408954,-0.7217886728736693,0.5609375343220495,0.000807015535460477,1
476,4877,0.005315136402337497,-0.3982856219029691,0.413720641174401,-0.018015489976061557,1
477,4878,0.020068314839407592,-0.47954238817546985,0.564436839195221,0.3511487788502403,1
478,4879,0.0162654847992921,-0.5321908711332771,0.5349083062147342,0.07498785670291025,1
479,4880,-0.08235879738016667,-0.8719447953784711,0.6544734766658953,0.022288024859229774,1
480,4881,0.04273258991014276,-0.5773918704763803,0.6764602857984678,0.42803028008524907,1
481,4882,0.002901322986694684,-0.34091351212564325,0.3266956148167015,0.046675878929720915,1
482,4883,-0.004525667650528095,-0.4074226398254941,0.3876615695235814,0.07753648008337906,1
483,4884,0.00012164657575277026,-0.3877453973534184,0.4112614783116358,0.18065906123674128,1
484,4885,0.0065298934560661425,-0.42019236167915064,0.5668184138205097,0.38527951901872437,1
485,4886,0.004738033137354204,-0.4815250883211779,0.5260124153770795,0.027472021742418848,1
486,4887,-0.004402812440023941,-0.4987759795688435,0.41659410043587075,-0.0840974220332454,1
487,4888,0.0575406975459428,-0.5668114322941454,0.8584332155983565,0.9768477177396244,1
488,4889,0.0022336504875672025,-0.2581981307507082,0.2795903493547519,0.010627699313824955,1
489,4890,0.010019159033605554,-0.3228399844643355,0.35822809946366174,0.22261084693452285,1
490,4891,-0.0036427734118545537,-0.513166344900558,0.35332670481156836,-0.21615809305551098,1
491,4892,0.005939390430778093,-0.27862495223741124,0.3079382100339245,0.14433648128691773,1
492,4893,-0.0002675656711876425,-0.325425135436629,0.3845987712120734,0.22730545328701718,1
493,4894,0.0031507291106484085,-0.44510785882039894,0.5052445201972845,0.31574000648400535,1
494,4895,-0.006893436037260649,-0.39492124789859384,0.3230612694467543,-0.5233739103567621,1
495,4896,0.05562319688054251,-0.573535339950958,0.8398824113407594,0.5770847092696216,1
496,4897,0.00426232076432744,-0.3059572916767379,0.3294578631763091,0.43469603748470154,1
497,4898,0.008950355748150332,-0.32498272870077294,0.313650161688832,0.29792131521712933,1
498,4899,0.010275185269145984,-0.4773829614408973,0.5225416363828455,0.003839457264070166,1
499,4900,0.019436366160155306,-0.4386569290302078,0.52395071194527,0.19825948685464242,1
500,4901,0.013635314421988476,-0.3138312880732944,0.42312638964101645,0.6685020362671256,1
501,4902,-0.0053414330739888815,-0.6164130322946699,0.5916273172918984,-0.05951876333091177,1
502,4903,-0.1359232239658997,-2.48324094055815,1.3911570747006183,-0.8338614135650005,1
503,4904,-0.0009560976004582833,-1.3554463073917753,1.4807957148985484,0.030639057142362865,1
504,4905,0.00029531653688813497,-0.8151854142528375,0.7525925478211546,0.20812755911745728,1
505,4906,-0.03122989495004634,-1.1576867705006253,1.0830832868061877,-0.03429826598773247,1
506,4907,-0.08188443859823136,-1.5625789229412739,1.7077759880190824,0.16025675958381974,1
507,4908,0.0351278551063789,-1.0026676314939806,1.2286728313366075,0.16209938345997374,1
508,4909,-0.05099730968464652,-0.9595104305124704,1.0739755718347221,0.11905376046317079,1
509,4910,-0.029236031730184953,-1.633811224781152,1.4819510887282221,0.03140690952636679,1
510,4911,-0.081088522162846,-1.7627663385205556,1.675283985673607,0.1558873250412343,1
511,4912,-0.07256065625079845,-1.6964996807266655,1.6166646549562005,0.17994453748358458,1
512,4913,-0.018168381633350106,-1.8441288195474077,2.459543186590935,0.347399307489926,1
513,4914,-0.08579985809603781,-1.6596576921597448,1.6395699613034187,0.0326755891355567,1
514,4915,0.006153815988622205,-1.3252551253315215,1.2522639634405843,-0.002001147648113743,1
515,4916,-0.06937920478486281,-1.213720335231872,1.2745921987214628,0.1420039261253716,1
516,4917,-0.06694383771186828,-1.2815720876764276,1.2731494878423948,0.17283515552247375,1
517,4918,-0.14910513278915735,-2.088774908921356,1.4787850484026852,-0.16625930917808188,1
518,4919,-0.12143302682511838,-1.9759539382718514,1.0911898354178993,-0.6854512677479406,1
519,4920,-0.1261188700255758,-1.8909876899471902,0.9382472949747218,-0.896022848320784,1
520,4921,-0.021238419757167573,-1.5310572635468356,1.4376323297629385,-0.010587838066605954,1
521,4922,-0.027133776605153637,-1.5533890759518312,1.5233012081010786,-0.11066562138894204,1
522,4923,-0.024432723260556843,-1.1693441114573342,1.1663642990799399,-0.07015093907510585,1
523,4924,-0.01104055028536973,-1.190874553218701,1.107698226713984,-0.0458144455640875,1
524,4925,-0.06835512500455983,-1.6517348169562327,1.5511390154373668,0.011392318873485035,1
525,4926,-0.0430278898933476,-1.4944153856063505,1.4106952023265953,-0.0628496746551287,1
526,4927,0.0016967034568609828,-1.130771263477415,1.1350357400169107,-0.04268727500809116,1
527,4928,-0.007664042473616496,-0.23236501235146184,0.2766966706540104,0.17065647746048435,1
528,4929,0.0024428196826763032,-0.2806662874157327,0.318074778052912,0.07120568436814184,1
529,4930,-0.010704499430231504,-0.6154152656604983,0.5466963842332608,-0.16771545280641403,1
530,4931,-0.0017379085233043938,-0.7468234453007133,0.5982915427511859,-0.19823831188542054,1
531,4932,-0.004803164769022497,-0.8291206367698392,0.7422860999396901,-0.13240305053548812,1
532,4933,0.026575863432488158,-0.7868046401381548,0.8055305247226276,-0.06292895264296221,1
533,4934,0.0034209639883883308,-0.8890820973629612,0.8261509600099901,0.13434999090920832,1
534,4935,3.394733969154691e-05,-0.8398480259660444,0.7445603603472386,0.1155779617809006,1
535,4936,0.013153677620925468,-0.7496627272466121,0.6426904215758971,-0.05169175130396199,1
536,4937,-0.0063161834371968555,-1.1877383038397422,1.1106891553668254,0.0745929284324163,1
537,4938,-0.02735892075766258,-1.2762775111722513,0.9310027142150741,-0.30998175036806525,1
538,4939,0.012803510598646319,-0.8768981007030912,0.7250340298811584,-0.042064790607284124,1
539,4940,0.013494943065896303,-0.799762292470414,0.7917845744135925,-0.09591302611519294,1
540,4941,-0.00174436712011151,-0.8278224775236945,1.0145413244762178,0.26438508382902165,1
541,4942,-0.012260931528717966,-1.1716013661628857,1.122076997215002,0.15219854431790336,1
542,4943,0.10785255399931665,-1.1787776382375168,2.0531711771369805,0.48244148942233916,1
543,4944,-0.01175777788571214,-1.4839735061005483,1.427945530791097,-0.09507738535656692,1
544,4945,0.036330815200300466,-0.8073739188222508,0.801633212788073,-0.03310733883763194,1
545,4946,0.014619698765756963,-1.413325921196412,1.4048975080611776,-0.005818871110644223,1
546,4947,-0.005921407803105687,-0.8240025039568548,0.7143168660132224,-0.07844874957503026,1
547,4948,0.024426659833908747,-1.020695875097284,1.058832180352877,-0.13483041434562393,1
548,4949,-0.024217967311731536,-0.6936344558814962,0.5445427421762301,-0.16346674036791892,1
549,4950,0.015043120245212855,-0.6302477293551828,0.46719303491923514,-0.23402962089781248,1
550,4951,0.003290436654168232,-0.5046433373326344,0.4691196894929006,-0.137134204786506,1
551,4952,0.03241918120314114,-0.5622364479867168,0.5353488147594363,-0.14670514863035847,1
552,4953,-0.026961549305091703,-0.8914055719325168,0.905571915545285,0.08626280577688496,1
553,4954,-0.00047287674440828903,-0.2363851161826458,0.36996004616691547,0.7189362800871579,1
554,4955,-0.01795427221959069,-0.7851397052130982,0.7960186758390286,0.04791447636228864,1
555,4956,0.00600445529047574,-0.7357436866070798,0.9274129875076769,0.17246963195482934,1
556,4957,-0.018917947938040247,-1.3331497324435142,1.196530627299679,0.01647011254654776,1
557,4958,-0.04263410533324898,-1.4935690936951258,1.3473134127613973,0.09276445229015641,1
558,4959,-0.022466538059520858,-1.33255116027272,1.4100246369356746,0.05585824414037231,1
559,4960,0.17398376555817938,-1.2973693225621472,2.441004579277884,1.053469451666532,1
560,4961,0.0054464435655024665,-1.4343470661782465,1.42476472513445,-0.030635907335276047,1
561,4962,-0.05268025226991791,-0.8305256703750226,0.6026842835825009,-0.09444473246165255,1
562,4963,-0.008957747914953617,-0.9544191709905342,0.9134947575248105,-0.0801594775456211,1
563,4964,-0.03761472367670122,-1.0645130214016791,1.0870816164308112,0.16012349636042528,1
564,4965,-0.039472960473411776,-1.0569041630330904,1.2086249691455082,0.18432819304036707,1
565,4966,-0.03294288252724739,-1.4979243946294907,1.405621714768141,-0.006673513567541134,1
566,4967,-0.05824575336650173,-1.4291553419958964,1.2997582161450267,0.14755683652777032,1
567,4968,-0.016021885788784933,-0.4379711922525753,0.3381019776329036,-0.22180438398359215,1
568,4969,-0.001853323958462133,-0.7419768446817001,0.9644779007771873,0.2626674843163046,1
569,4970,-4.596927531283721e-05,-0.7119897549539952,0.6907496405093569,-0.04858514302450999,1
570,4971,-0.0033114878427107455,-0.7771011442827551,0.7443640809267187,-0.11100705690264087,1
571,4972,0.01981659881129927,-1.105435188955492,0.8449522468081211,-0.19684943788466025,1
572,4973,0.02756693590683178,-1.4788682486650213,1.4566874559969807,0.10150760010014491,1
573,4974,-0.11713848736670145,-1.4258067955161966,1.4035551715292356,0.19781419745608597,1
574,4975,-0.005231086460012015,-0.8820207256352228,0.7733998697406688,-0.13612815457361777,1
575,4976,0.01702333033699122,-0.39636864642990677,0.426877188912023,0.17268573133313855,1
576,4977,-0.0287926673305238,-0.9314181512720644,0.9412801134063797,0.11891556026691148,1
577,4978,-0.04573353011477149,-1.3052505537974803,1.3619619605465714,0.04281723974407488,1
578,4979,-0.11422690144871778,-1.557107376291642,1.2531858220066305,-0.07098010720306759,1
579,4980,-0.10393627772398967,-1.5442208751043984,1.197766946256042,-0.12993658817568318,1
580,4981,-0.00020409969802244552,-0.2947337606085345,0.29082932681737994,-0.06702013968777651,1
581,4982,-0.013066827738602958,-0.7990401372225767,0.6137761582592325,-0.34502127838840085,1
582,4983,-0.010804365616410265,-1.0386962950836232,1.031360537733856,0.07153950935270467,1
583,4984,-0.00256750354277769,-0.41599909133426266,0.4008811622908174,0.04871398752145556,1
584,4985,0.0024351973340818174,-0.491367091074453,0.4987157245331878,0.025057253308397132,1
585,4986,0.0013344779886681132,-0.6269138337512516,0.7959113382689553,0.1927391581864298,1
586,4987,-0.0979833758198267,-1.1945635738976892,0.8744560315263303,-0.20061536059779178,1
587,4988,-0.0007640798235034584,-0.8782409134996098,0.8625396730860532,-0.006802035160052238,1
588,4989,-0.004314082946871572,-0.2061929089080117,0.21477164502284563,-0.015702123202762784,1
589,4990,-0.012505855952821368,-0.4776610698478838,0.5625362598687917,0.2638988634912938,1
590,4991,-0.05954997834939655,-1.2122636561942879,1.2047463343306193,0.14124424031560662,1
591,4992,-0.07400519049552788,-1.0360785627448474,1.008645605612952,-0.10555977690639157,1
592,4993,-0.016967480545996238,-0.8232560218521743,0.8855412186478542,-0.03550004517051528,1
593,4994,0.009118928907310342,-1.2869261891363921,1.5018749819357486,0.06453518534829511,1
594,4995,-0.019026548330146702,-1.4578259981999957,1.491618918362848,-0.0029259871090458315,1
595,4996,-0.031789695106312216,-1.4646572074229118,1.4859633321751788,-0.0028865683475729066,1
596,4997,-0.07647522128948005,-1.4394962035393228,1.5058398300953804,0.09318177148466407,1
597,4998,-0.013346515328801224,-0.5548367828635441,0.5851112880932561,0.060688749768498425,1
598,4999,0.014550492901564785,-0.5187124282624733,0.500952946213744,-0.007206324499728674,1
599,5000,-0.03757756961400682,-0.9213982822917919,0.7422957770679111,-0.022460224478244226,1
600,5001,-0.011719979657838242,-0.26259877656510067,0.24079949543006837,0.09698689843651806,1
601,5002,-0.006744878244081143,-0.29285736384439476,0.25916161126499293,0.02601251473064008,1
602,5003,-0.003950674320855143,-0.18215226423076597,0.2334565537626666,0.19242094301516935,1
603,5004,-0.009614671908661726,-0.27384531839691584,0.31439045505567936,0.20115493133325996,1
604,5005,-0.001426196932147729,-0.2986229093301547,0.3288740160992871,0.43342435442646665,1
605,5006,0.0032770691796955645,-0.2802074588201061,0.2560304259271362,0.1363318646689114,1
606,5007,-0.005858800584528516,-0.20464131813607733,0.16684113528492558,-0.34641605229817074,1
607,5008,-0.0071387098680267295,-0.1378555747192453,0.1470726703326132,-0.08550958492713395,1
608,5009,-0.004372910252164162,-0.13046061672082365,0.13927553158346578,0.0438312867591654,1
609,5010,-0.018830810789605527,-0.34242020724929234,0.3016753723789287,0.064597654807343,1
610,5011,-0.0009370790031036219,-0.14384141771261721,0.18197023491547132,0.06232571128411493,1
611,5012,0.000622016328412989,-0.1735863178199607,0.19876083253119803,0.19854154430654045,1
612,5013,-0.005285316444175671,-0.17953928701267557,0.22372189243094714,0.41847745184091,1
613,5014,-0.004144024135230451,-0.1915068013509362,0.1953096518647004,0.33773001326721314,1
614,5015,-0.0021568076048164363,-0.2344383232150147,0.22595504978598022,0.04195680434319686,1
615,5016,-0.0019802730166705042,-0.25421484629984525,0.2296888317495136,0.22833569798149222,1
616,5017,-0.0023473076571938127,-0.20444381425417724,0.17472551030335876,0.20881665608679437,1
617,5018,0.0012896599253999941,-0.17513447551807754,0.17687982433666888,0.11096918507190662,1
618,5019,-0.00816426602310754,-0.17479210364309905,0.20997717180080294,0.36898752730858286,1
619,5020,-0.008520102514134655,-0.17678350393604672,0.2072773202317667,0.17782278296964754,1
620,5021,-0.0046164008411014165,-0.2581780074471025,0.24688478733715874,0.11437759064742373,1
621,5022,-0.011381156998157607,-0.21738706001648614,0.17264602850244698,0.04510519743011525,1
622,5023,-0.001603818545289245,-0.12177775706735092,0.11684453068061906,0.040303577298919264,1
623,5024,-0.003940716797113144,-0.162797782393645,0.16783726336232724,-0.011522808870849742,1
624,5025,-0.001500627411266434,-0.16947587952951393,0.17705229894468633,-0.11349958124795295,1
625,5026,-0.01392708697418243,-0.26639941612078233,0.24904617796859124,0.09244299900300022,1
626,5027,-0.006118840753834599,-0.20870746395926243,0.24415049513218537,0.35336899219305806,1
627,5028,-0.009995654038408346,-0.24162515406632754,0.20514120009860526,-0.6637430043911546,1
628,5029,-0.004615649896448634,-0.17402372818351367,0.1950025480568398,0.15194888272369467,1
629,5030,-0.004676889461365759,-0.22940631999740313,0.2335173929327075,0.17757055755225265,1
630,5031,-0.006217861289432283,-0.1326991084185175,0.1389137392717461,-0.18402983125096295,1
631,5032,-0.005367593974993724,-0.14414712368225732,0.15026097180632564,-0.09094455169171042,1
632,5033,0.0036581886259195785,-0.24626986882315466,0.34770037228089956,0.7596049946863168,1
633,5034,0.003208387857080639,-0.28479064557933287,0.3640665440346253,0.648263589916132,1
634,5035,-0.001629856903439774,-0.16856612114957084,0.19402752612617813,0.5436905972725392,1
635,5036,-4.304789780244508e-06,-0.06393870614119801,0.07530384149588122,0.09791801725827354,1
636,5037,-0.008140099906426987,-0.17882282270759797,0.18358093776497414,0.1116603599812326,1
637,5038,-0.008254536220515741,-0.14747741907383283,0.18655216492481053,0.2623116479813967,1
638,5039,-0.0073266572638751365,-0.24140312244507187,0.23145258265236954,0.14488407440406728,1
639,5040,-0.002846329326110709,-0.2439685544353064,0.25310906356321117,0.21200040316719698,1
640,5041,-0.00554359454161688,-0.13235723259034765,0.16757653655536336,0.4121513047117972,1
641,5042,-0.0004886522893775838,-0.12232511242757234,0.11798703305546976,-0.06700296357587411,1
642,5043,4.4290333784481025e-06,-0.09107516992342694,0.0831678794218973,-0.19742790637824775,1
643,5044,-0.002935580008419573,-0.1329964686353693,0.16160437253833682,0.16070007212453463,1
644,5045,-0.0024366745698861606,-0.12159639704455419,0.106537103638051,-0.3813720152965781,1
645,5046,-0.010387369800096522,-0.20492026552698486,0.24351184342614007,0.3789108089306717,1
646,5047,-0.001054531064373673,-0.07972916742733588,0.08528100469077127,0.03105415438113451,1
647,5048,-0.014097853528888338,-0.23202761505477637,0.19160961427720108,-0.06013680880297716,1
648,5049,0.00036551489117701857,-0.05776682914412643,0.06579926014249894,0.005419749322606159,1
649,5050,-0.011133713854571464,-0.14836129256823644,0.1717220019322675,0.05293682305984911,1
650,5051,-0.004353532775297824,-0.16995777565517092,0.19466421031469938,0.09685046849919683,1
651,5052,-0.0014264837396228414,-0.07421990585605569,0.08967391944296536,-0.016273889900012516,1
652,5053,-0.0009338087015793667,-0.2260266500979724,0.19784109698462055,-0.002709678446714396,1
653,5054,-0.0032966903943185597,-0.11728611406154651,0.12356880847607887,-0.18994717723548027,1
654,5055,-0.00012886230609803132,-0.17530630351767046,0.21155797839741575,0.673716360174754,1
655,5056,-0.01127016120985979,-0.18203552044840188,0.18024091726028635,-0.017995818557608154,1
656,5057,-0.003398395389881119,-0.13858066622012516,0.1522673768481268,0.18146153300156279,1
657,5058,0.0020010433052505866,-0.2161051144850903,0.22544663447594787,0.2601051039956723,1
658,5059,-0.0008202434238680266,-0.12989283072766736,0.14121838191189434,-0.18907563114808246,1
659,5060,-0.0011848375343406995,-0.107073087496504,0.09384825595269855,-0.11400662661747565,1
660,5061,-0.0054854654008499775,-0.1137030865251896,0.11776284974920259,-0.3677754046746589,1
661,5062,-0.006555842962468844,-0.13334544315200714,0.15033764693857132,0.08110395440467323,1
662,5063,-0.003927277523546075,-0.2050459306051851,0.1846484083874373,0.2614968623758196,1
663,5064,-0.004788233392155045,-0.17631973826226802,0.19274516991094254,0.27761776697756596,1
664,5065,-0.0072949618576787735,-0.1382844635786516,0.16977072679494543,0.4711572996723361,1
665,5066,-0.005117342751761821,-0.113216876270293,0.11913946659619465,0.09761088956710139,1
666,5067,-0.0038473134285408744,-0.18213222290235026,0.19443588820234242,0.19845121476469474,1
667,5068,0.00146251713325101,-0.20462405541566145,0.2174630747147197,0.16189040315231065,1
668,5069,-0.009222421764346735,-0.1809346536796934,0.1948669527522131,0.22169875019654275,1
669,5070,-0.006244740406772097,-0.15065177947207278,0.1795094502038066,0.25480539225115506,1
670,5071,-0.009065891614625374,-0.19401543268328414,0.20415393272635873,0.15716770085227103,1
671,5072,0.009390713121327977,-0.23888991634848433,0.3024241202704961,0.6465390131143496,1
672,5073,-0.0014682648414075649,-0.20682235964503012,0.18854794220787208,0.0964184856621885,1
673,5074,-0.016494149306517273,-0.22561200245476873,0.18555516627837318,0.12958207513136039,1
674,5075,-0.00820675209316104,-0.18863405918594106,0.19097936053914985,0.06790516189177268,1
675,5076,-0.0018068597608046817,-0.12813674708216113,0.11882208794170021,-0.4995795507864958,1
676,5077,-0.006875992350801066,-0.17767091297730653,0.16991832359949008,-0.11069318812400808,1
677,5078,-0.006568591443400928,-0.19312212384979766,0.1331912754533409,-0.8997032237638679,1
678,5079,-0.015588431703146886,-0.19802793140549604,0.1698477533629294,-0.7268035871368426,1
679,5080,-0.014267568536656122,-0.2453330473256389,0.1863888775187697,-0.3453590576112332,1
680,5081,-0.00048500019579388016,-0.12273453254545134,0.14666208783213225,0.10499129161919951,1
681,5082,-0.010533615826802489,-0.13623878049252697,0.169471906440237,0.2645581150170025,1
682,5083,-0.0031166879887945414,-0.1760795318048878,0.16843283397793157,0.27368015853462974,1
683,5084,0.003194706933662505,-0.19208536721410657,0.20570324867203676,0.058470530244841924,1
684,5085,-0.008920952105608471,-0.21763223988766703,0.2177159167526762,0.12375867675887285,1
685,5086,-0.004395257313992669,-0.19369428531747884,0.15400217366680208,-1.5005752027768677,1
686,5087,-0.005828447167453823,-0.13593678992364033,0.14394737758613008,-0.5158192480693388,1
687,5088,-0.006348859597229053,-0.14425893770588488,0.15224085160385006,-0.19287350352253999,1
688,5089,-0.008709532999063803,-0.11623816312800833,0.1530117212037332,0.24513665846423385,1
689,5090,-0.006451726096928602,-0.14653401009464223,0.14566210729459309,0.11873273953681367,1
690,5091,-0.009575427594545658,-0.13433918119003715,0.1455039398955259,0.19607535212319155,1
691,5092,0.00048042985719892284,-0.05731437488715487,0.06329173523121272,0.07043524876530297,1
692,5093,-0.002904873356296104,-0.0962706699993466,0.10400184693528954,-0.3635685355698073,1
693,5094,-0.001966603206627725,-0.1733002751594327,0.17929630296353116,0.0620100803419445,1
694,5095,-0.00446674038518447,-0.1478821733653357,0.1307258663410446,-0.11779615709387073,1
695,5096,-0.003667977178899632,-0.11302544030053674,0.11269199755591047,-0.41603856672513256,1
696,5097,-0.0026762662600025265,-0.10199162963523535,0.09455927727465394,-0.27553944969799254,1
697,5098,-7.197604565441211e-05,-0.05665972075286857,0.05797021629589246,0.07802946275002935,1
698,5099,-0.004650001522630606,-0.1444379540964478,0.13633730810776346,-0.4314792153844659,1
699,5100,-0.0044006634356683,-0.1703106464554754,0.1770444583605377,0.5428535506986063,1
700,5101,0.05990274153647516,-0.5953030437952052,1.019550117384627,0.610322793903027,1
701,5102,-0.019883823912725918,-0.9971933472053914,0.9249320969639605,0.06993127142705066,1
702,5103,-0.08637925907408106,-1.2412013703715263,1.0784731616702987,0.013025255425281792,1
703,5104,0.01117377395206179,-0.3753235104818654,0.3782542500812064,0.06627836829819858,1
704,5105,0.012784874532227077,-0.530277003905383,0.4405787565058439,0.08248956154298813,1
705,5106,0.011001209259297885,-0.557593606006876,0.5134328909121646,-0.030967784350700574,1
706,5107,0.008042442925867517,-0.8532816254616966,0.8899076191069865,-0.017767812310653473,1
707,5108,0.04147936310912395,-0.6029207134546521,1.1138087840640112,0.9279964828103267,1
708,5109,-0.0023072003095297076,-0.39004493245654104,0.4160030544824228,0.18728396988325463,1
709,5110,0.0038858063892117344,-0.41688298221441444,0.41338170778751443,0.14018050850712607,1
710,5111,-0.07141753938437674,-0.9089153806450638,0.9527192963533101,0.22705960565676234,1
711,5112,-0.00792463748389609,-0.868985986268503,0.5941987069923831,-0.43388119505591544,1
712,5113,0.019633092255725196,-0.6675728260162055,0.8155532723175336,0.24841120106467648,1
713,5114,-0.006968061117649396,-0.3107096696823352,0.409229374146821,0.36749503595179944,1
714,5115,-0.1839585364103192,-1.6848912839821208,0.9738086205965781,-0.7518828452950683,1
715,5116,0.013311078824040165,-0.6008404760116284,0.6848848120836163,0.1918567191265215,1
716,5117,-0.028361703570516195,-1.4218966868538372,1.335376487048487,-0.5173930969013177,1
717,5118,-0.06420857989548746,-0.8833152274406024,0.8910236523046797,0.1762195471070429,1
718,5119,-0.001947397933534701,-0.5798411961545626,0.5618817057586178,-0.1672567840317827,1
719,5120,-0.007382355225682588,-0.952397641162037,0.7633365661104471,-0.5650479600045518,1
720,5121,0.002152775760039461,-0.2012671466610215,0.21544664525839474,0.2213675188773923,1
721,5122,0.003050758036556304,-0.2581257419891799,0.28821187105760526,0.6089369225480475,1
722,5123,-0.019314456177464242,-0.6167723716408171,0.6146078661655,0.15022538393122326,1
723,5124,-0.0006577058911764883,-1.1352624714614437,1.682116533672493,0.4500731039458905,1
724,5125,0.001696775094926507,-0.33237011048350773,0.36671533309380155,0.2238994471851605,1
725,5126,0.008261605729058145,-0.2721764711341226,0.2706046570463546,0.14123535973644052,1
726,5127,-0.007690764296878118,-0.857939049936757,0.926936144516108,0.2076679338170184,1
727,5128,-1.5700750090805876e-05,-0.27883320866616074,0.331439005770623,0.3004649123116126,1
728,5129,-0.007937819838463275,-0.7055865126643974,0.6803985788377372,-0.027929731142968216,1
729,5130,-0.004041751701678499,-0.6497222291002065,0.5608885367265437,0.1920696167938469,1
730,5131,-0.0966473940848251,-1.3466812798805061,1.195420744301654,0.03267943334010467,1
731,5132,-0.07386776584374273,-1.2084975011095835,0.7232656635953727,-0.44570278701516286,1
732,5133,-0.007039065685996504,-0.3729557383873095,0.45042242899524515,0.5145969526638675,1
733,5134,0.0036791475348866808,-0.5584062631582045,0.6197125884639657,-0.01666931744881804,1
734,5135,-0.04896577507564084,-1.2055339313739535,0.8444198035511747,-0.35520803831334485,1
735,5136,-0.10421581235289658,-1.2512100288301595,1.3106784613059825,0.13880465303441958,1
736,5137,-0.02505741671059193,-0.8609319755798281,0.712965045805225,-0.19439161525734894,1
737,5138,-0.026437211186420475,-0.7969481210564349,0.706758256756614,0.04332404545444815,1
738,5139,-0.09830302498950881,-1.411060436134779,1.3605582371380451,0.0984900349301442,1
739,5140,-0.08244369689567567,-1.1459814912376123,1.2259884498141052,0.07590700098755214,1
740,5141,-0.2164076253054468,-1.9466773201793508,1.3096885156580576,0.029640788345821237,1
741,5142,-0.04335153923517112,-1.0766620626373786,0.8910801916751665,-0.14577225301603003,1
742,5143,0.039837206530631115,-0.8070763220445708,0.8078376871844969,-0.06257230426208146,1
743,5144,-0.09784702861969068,-1.2145202247102196,1.0882217312828375,-0.01274633751392201,1
744,5145,0.02332236719844212,-0.6749312742268546,0.7512878988894575,0.2505213690389556,1
745,5146,-0.04052437888868858,-1.0104988130507828,0.7722506803788647,-0.13427074810325443,1
746,5147,-0.004764870810828233,-0.6914181807270259,0.6917683619899819,0.08767136423944441,1
747,5148,0.013049118483590404,-0.5474392156834395,0.5146631356774087,0.06401504862246502,1
748,5149,-0.22821194712220294,-1.7389488548570595,1.1375527644342098,-0.01942176007152014,1
749,5150,0.063924526343536,-0.7139102868403281,1.2527676784277788,1.0405523281595015,1
750,5151,-0.017226680482315765,-0.5865148091984005,0.6146886144528396,0.037261601523441566,1
751,5152,-0.005532542481994728,-0.5048702717447113,0.5119067988629661,0.31579404111243237,1
752,5153,-0.03325770920649647,-1.0405152794296293,1.1657033265228756,0.11196328922916537,1
753,5154,-0.093599937945677,-1.421205492379296,1.3020974617100938,0.05398319405318751,1
754,5155,0.025124009451619907,-0.6666647903590397,0.6636010853562975,-0.10206454271897462,1
755,5156,0.028145284254397638,-0.813478620140961,0.780353842198797,-0.06556399187071145,1
756,5157,-0.04748641006020513,-0.9543610416941555,0.9913523851737691,0.18314828728632088,1
757,5158,-0.033661229575481365,-0.5636135807369415,0.6011162079602773,0.2653859139886923,1
758,5159,-0.026016560922387147,-0.4251921988864683,0.5376122663056837,0.09469663691511797,1
759,5160,0.00034331577362081526,-0.385078927446694,0.3735001646533451,-0.024993980972776348,1
760,5161,-0.0642600092173376,-0.9846963366737997,1.0655605259306247,0.15132813826103958,1
761,5162,-0.06901819260556616,-1.0439810677177697,1.0434869857905882,-0.10840372499755944,1
762,5163,-0.020898821749317564,-0.8118409025884661,0.6624731256080707,-0.06758759346047066,1
763,5164,0.024693509674499976,-0.7057375696579501,0.9854793111436235,1.0148111442036567,1
764,5165,0.003266591632939272,-0.2100457819004422,0.21261454941974967,0.45653349027358137,1
765,5166,0.007201892731652407,-0.45682911051781616,0.4039635342759419,-0.01425747400158983,1
766,5167,0.008764030494960598,-0.8728587217385414,1.0666114779296763,0.2051419706437717,1
767,5168,-0.053947198373099574,-0.9947785699576259,1.0639109265590823,0.12736412808596576,1
768,5169,-0.04844331947279026,-1.000727266421776,1.0156040563060338,0.10980998304931895,1
769,5170,0.005530549489053409,-0.5776859017955971,0.5299106604449297,0.02807509169648461,1
770,5171,0.0005432149514209237,-1.2499135144257716,1.2682226081886705,0.023975925608735068,1
771,5172,-0.016609483848347265,-0.8725293534026095,0.7857035164215218,0.25247728619563914,1
772,5173,-0.00740961023827285,-0.23596880687714616,0.28684012866697295,0.06764433981382911,1
773,5174,0.0009811749543863467,-0.25112853526989,0.35476672516486013,0.588626281433356,1
774,5175,-0.0008313992776295196,-0.14702025836999966,0.12860964757735754,0.013283072188390673,1
775,5176,-0.01064197385625544,-1.0876372265296896,1.0704156332303343,-0.029984341979573316,1
776,5177,0.020181916707971394,-0.5900902886924244,0.517053959623544,-0.07255238326535263,1
777,5178,-0.03189688617931887,-0.9530637313278474,1.05307105613764,0.10833250938198652,1
778,5179,-0.06873497758976381,-1.2073588956391395,1.228697920749517,0.11939338007795541,1
779,5180,-0.010200948911157156,-0.7758697326247184,0.7711387310038889,-0.08607299272721278,1
780,5181,-0.09681829561429856,-1.1569536734859143,1.2102300322470256,0.1507934166941558,1
781,5182,0.01616665605983336,-0.5433743186301777,0.5406351166300849,0.04604038874086326,1
782,5183,-0.07782552486372717,-1.125331052684718,1.1244169752433244,0.076237817805823,1
783,5184,0.048786072249702946,-0.7371197754836301,0.9670640555978393,0.7500958425975247,1
784,5185,-0.09276002390735381,-1.0882921473397884,0.9835502971298222,0.06664917456233531,1
785,5186,0.004071388515634963,-0.564884151133733,0.48420925771887147,-0.15921639183835543,1
786,5187,0.008321776840966575,-0.4405445810829004,0.46794888600159235,0.15403383696320386,1
787,5188,-0.17610274936800033,-1.6641749780892308,1.0261597031522087,-0.27980360989117653,1
788,5189,0.046662575840970166,-1.1525956720223693,1.748783294366432,0.32941659207994173,1
789,5190,0.03685640235237952,-0.5607712801739106,0.5750436023950198,-0.0898629862357283,1
790,5191,-0.014713868229227087,-0.6022942146511325,0.6520915645150753,0.1427912139280663,1
791,5192,-0.01139292626789471,-0.8263747771072002,0.7626719518585723,0.03136639986026029,1
792,5193,-0.004819589021548213,-0.5131906831448946,0.5590943997146478,0.24993825088818555,1
793,5194,-0.11156956804609086,-1.3284188727327442,1.3181897939641165,0.151923847036506,1
794,5195,-0.01934974634289385,-1.0927379072181682,0.8962417160101241,-0.21593935405501075,1
795,5196,0.01401677867258802,-0.6366376063916348,0.6399193254734712,-0.07014123965634723,1
796,5197,0.015140241848422123,-1.1275326700179542,1.1392065249073164,0.010064310832503023,1
797,5198,0.0605278589253348,-0.972962659394204,1.6258547239651011,1.069521262524872,1
798,5199,-0.08529204849538491,-1.36603680534576,0.9392492870853277,-0.2062739984660853,1
799,5200,-0.041684295541979464,-1.467401878823682,1.2049008819298686,-0.0569130487623097,1
800,5201,-0.19285264799890314,-2.3384418461120777,2.0952938860132537,0.05787409990445364,1
801,5202,-0.22097987981033115,-2.568151662037388,2.2747448058933903,-0.09748017033405153,1
802,5203,-0.769033019113663,-2.8320312697161443,2.8196688116573094,0.6215571157393294,1
803,5204,-0.3435012052110957,-3.147595241483982,3.1572377113730545,0.17930804078374538,1
804,5205,-0.4216340450546899,-3.364337591972175,3.294423677814697,0.0919468446386751,1
805,5206,-0.4315034883134758,-3.1016740736398214,3.0828966825885846,0.08294352162100659,1
806,5207,-0.4185922017905084,-3.147819389721789,3.1406575568043293,0.2460467936512675,1
807,5208,-0.6020529650348494,-2.7617179998126966,2.7752731937099684,0.5071516092662764,1
808,5209,-0.6051793145172772,-3.115451511395521,3.121108026777782,0.4520578773833024,1
809,5210,-0.3363502520313133,-2.9194617976113104,2.9114973354925384,0.24567715825558514,1
810,5211,-0.4978666530187086,-2.9297145520546666,2.9268882548045614,0.3280711163524266,1
811,5212,-0.47593360817513947,-3.054563189821674,3.0093448383017156,0.13925645288210067,1
812,5213,-0.5771956729920859,-2.8719513768248213,2.8892247070886863,0.46409946456542484,1
813,5214,-0.3847908425551263,-3.100820844711676,3.1025433508614384,0.20986336364844002,1
814,5215,-0.6356868907516995,-2.9912331345628553,3.0175317927862553,0.46863565625863285,1
815,5216,-0.7543924026810741,-2.980736101469917,3.014286814891215,0.6339808070999493,1
816,5217,-0.5362710607740936,-3.0526149166598735,3.080145185486,0.5180146948598706,1
817,5218,-0.5599993666876274,-3.4635613054357917,3.4709402691437106,0.3371029477580824,1
818,5219,-0.10243597324655929,-1.9210158140045817,1.325037099649784,-0.5848214200151326,1
819,5220,0.022874626359015836,-0.39083516046293093,0.5022742311986543,1.011765558811712,1
820,5221,-0.1835433805179987,-1.8552385486878036,1.1748388835288575,-0.4260539569439498,1
821,5222,-0.008363762944912824,-0.610340981969625,0.6308845516236823,0.14187236705001036,1
822,5223,0.04170209115231429,-0.8865622044196411,1.009577854383069,0.18974411992503326,1
823,5224,-0.010191640888823938,-0.3631652867984656,0.3895437477088324,-0.008492096527794896,1
824,5225,-0.08863191179093653,-1.1574763630465938,0.7353806665747045,-1.2358263926774724,1
825,5226,0.014822500353230884,-0.5591913131728177,0.6540579376676673,0.5187168052463946,1
826,5227,-0.061373972158779454,-1.0257792204135514,0.9433511760655224,0.04497236420915033,1
827,5228,-0.20533337887154132,-2.1655834801475455,2.1264663852691177,-0.24657501793607817,1
828,5229,-0.2957194004721916,-2.4215994828000884,2.4797001991034313,0.272264232712498,1
829,5230,-0.2109031056028785,-1.517415792283825,1.4353109403378785,0.1525518120263597,1
830,5231,-0.40799710671983175,-1.7641914965971708,1.7638760224509462,0.5452324802290818,1
831,5232,-0.3108336508625689,-1.8469588157044357,1.836282208923166,0.3944719384233537,1
832,5233,-0.3776765696897155,-2.413928498729275,2.4018896078302316,0.43090647101471674,1
833,5234,-0.5437249898303039,-2.7629839898542086,2.7733720158724524,0.5039847970156037,1
834,5235,-0.5825987816680268,-2.738537075670882,2.661121568326486,0.5021935250684366,1
835,5236,-0.49048812277132564,-3.2948933243119676,3.2011740847985557,0.18205674221401388,1
836,5237,-0.42787360484972403,-2.620806305446915,2.6202851515386585,0.39144182949832357,1
837,5238,-0.3966912066237474,-2.8568177966129236,2.9512442933529206,0.3199246738344188,1
838,5239,-0.4605662488449665,-3.0808156006404843,2.437826423729936,0.06644254536712194,1
839,5240,-0.6039405249216636,-2.6969896651261864,2.6836673735612777,0.5529144744621377,1
840,5241,-0.3803389521659039,-2.0049382974891916,1.961793615961878,0.4777953986176978,1
841,5242,-0.4046670524411035,-2.746467853569345,2.4778948970769514,0.11396574689458137,1
842,5243,-0.43401638923698277,-2.6670104134759667,2.744827259874132,0.3531832558448534,1
843,5244,-0.4893602979719714,-2.3155187706836147,2.30131224711566,0.49611959062516564,1
844,5245,-0.34458738063187005,-2.3461872082887263,2.379503484292565,0.4083551585354978,1
845,5246,-0.5493467621749265,-3.0709584087912893,3.0604945474715537,0.4316412476483557,1
846,5247,-0.4268529004314365,-2.686591506720358,2.683905414671691,0.3550046610435006,1
847,5248,-0.4310642930003008,-2.5186575097538144,2.49733806122188,0.3742553224124937,1
848,5249,-0.3182743508166972,-2.631109885977514,2.429519860276581,0.20872135548809925,1
849,5250,-0.5676946234573886,-2.7886261308488542,2.817616338688029,0.4631970287127547,1
850,5251,-0.3026173150137938,-2.947510720833645,2.9493166002552837,0.19666718049167564,1
851,5252,-0.5153994139601504,-3.129157416300579,3.138897362943439,0.3709879604703778,1
852,5253,-0.850475996212074,-6.175375679720958,3.8216268258105215,-0.1724786841361779,1
853,5254,-0.46184127601067787,-3.6365014671249463,3.6346852416330666,0.25989603854356524,1
854,5255,-0.12410501717221174,-3.304590375317507,3.4319486597061357,-0.020274053951740156,1
855,5256,-0.4741777130696125,-3.007027445806357,2.994732680177939,0.3113786638582685,1
856,5257,-0.43770962424707155,-2.57006774104867,2.5620357968718084,0.32025503983869885,1
857,5258,-0.6172913572182938,-2.8760253186358202,2.929488586819671,0.560346115219769,1
858,5259,-0.16500392659079052,-2.126442442000344,2.161033756540823,0.23289886835470294,1
859,5260,-0.41382399754258054,-2.371874522956607,2.341888214691047,0.41751246194422914,1
860,5261,-0.4251752132847077,-2.661760271822419,2.6063674358648905,0.3593110990236511,1
861,5262,-0.22880081808433073,-2.5816470071399364,2.6697971142454278,0.12850991897999048,1
862,5263,-0.34905310760557406,-2.2780430709965547,2.2550889135181493,0.3779096000098991,1
863,5264,-0.2904839732439442,-1.805167056031185,1.817978892739963,0.32011890503877366,1
864,5265,-0.32795664164493316,-2.9613012119803463,2.7995215682967096,0.015688333284888677,1
865,5266,-0.49607540812081613,-2.9968028436390055,2.6143726474451663,0.26027908828867014,1
866,5267,-0.3117084496331077,-3.076179504965627,1.6560446367800044,-0.6939830823443586,1
867,5268,-0.5498027317989068,-2.833495626084817,2.8150097882169662,0.4508540204395563,1
868,5269,-0.27949758116102,-2.3911427656217152,2.3716872321843376,0.1838347679706216,1
869,5270,-0.32644172342845684,-3.4745554530805487,1.96541930400175,-0.9159507629018644,1
870,5271,0.0017942179776060756,-1.7472301143279734,1.8036143430924427,0.11056829017561572,1
871,5272,-0.5016431262439126,-3.1916403088316057,3.242357403677757,0.37173819917777357,1
872,5273,-0.4534595387870568,-3.661863568371068,3.729764558861259,0.29754535478073074,1
873,5274,-0.3461445446780386,-3.6024725963420012,3.6187890040192174,0.13360483912238097,1
874,5275,-0.5901564141893997,-3.4469277212905185,3.391067935425445,0.23250796535213727,1
875,5276,-0.18442527577339954,-2.4897094126873878,2.159776314852303,-0.6573628830305821,1
876,5277,-0.44102196018678336,-2.1679873810077512,2.134040331045176,0.4791864251989512,1
877,5278,-0.31748481517875715,-2.709270916810887,2.7141307133121204,0.2358701076778785,1
878,5279,-0.3572974146183707,-2.502503858617879,2.4994690526574175,0.33445349172907846,1
879,5280,-0.4606033947038082,-2.321058233306907,2.323903149470623,0.4213580800186437,1
880,5281,-0.32761437418436407,-2.331705533858571,2.360250918058525,0.3054720058165841,1
881,5282,-0.6022265041374548,-3.7270526073002044,2.2439608341018573,-0.2736887271157564,1
882,5283,-0.5859132050134813,-2.8034619630455824,2.836043578905211,0.48487910329059375,1
883,5284,-0.4398758055991543,-3.251556559942589,3.2659145794548854,0.2868333502405122,1
884,5285,-0.35018718567716656,-2.860465366061854,2.868578709919448,0.29635903109999384,1
885,5286,-0.36725113693223027,-4.360385173146115,3.752744487214088,-0.319241198977245,1
886,5287,-0.680678326623994,-2.8142530015777316,2.891895798683409,0.5908990189998192,1
887,5288,-0.6466728105825507,-3.1150321265410126,2.981788812791958,0.4527009638130909,1
888,5289,-0.4256270114980217,-3.5371187687787833,3.528427475307316,0.10778355440801149,1
889,5290,-0.541368813119388,-3.621219937119762,3.6171796456195064,0.3330479604317241,1
890,5291,0.02430723948631418,-1.657222525221174,1.5474653578902715,-0.12761029625443365,1
891,5292,0.002854092150088146,-1.8643253489931428,1.9866101766170232,0.13290296162522497,1
892,5293,-0.5241489139959521,-3.0987822991444904,3.115221332982286,0.3542730634117798,1
893,5294,-0.577040864710769,-3.2015548297860574,3.202146794479159,0.3543831857655359,1
894,5295,-0.39003052179266895,-3.4035843718972716,3.587143371241923,0.20893271520960904,1
895,5296,-0.6800903521984102,-3.5699711191593595,3.561349478765132,0.4242364556745508,1
896,5297,-0.5896020847938268,-4.517749701013621,4.370655279723256,0.09858974986942616,1
897,5298,-0.5153899159874923,-4.595845008467911,3.638096959830592,0.09378766770937344,1
898,5299,-0.37521959586803216,-3.9899843834917323,4.130525932998765,-0.06671132854825029,1
899,5300,-0.3353408020690589,-2.13569463520134,2.1615551208865376,0.25098714978188286,1
900,5301,-0.09493875485539745,-1.751713538361662,1.4663349262023844,0.04317250229629857,1
901,5302,-0.08172290139055477,-1.4947299674913181,1.5593535054504473,0.10664167344728057,1
902,5303,-0.10517164948593467,-1.9696844308109234,1.5778367306953978,0.08703645686079776,1
903,5304,-0.16108699835539675,-2.120476841039354,1.6456930467094857,-0.02545442216937667,1
904,5305,-0.20245561941876936,-2.050391600975865,1.662884013213554,0.031452623869765446,1
905,5306,-0.13284108971161077,-1.5409843571730197,1.6200293462966844,0.19769412804620254,1
906,5307,-0.10216203321087881,-1.399765263054721,1.5751849696350302,0.1594039980529528,1
907,5308,-0.12022656276227034,-1.4489556003538127,1.377846097373475,0.046009940937015076,1
908,5309,-0.10070392564680854,-1.7639859484091382,1.4224047387131078,0.017523539509363063,1
909,5310,-0.21292048165934915,-1.8470492330263673,1.5134849021598051,-0.012001838205892531,1
910,5311,-0.06134282801893154,-1.6463770521115588,1.7078633472940612,0.15215096936555508,1
911,5312,-0.12444082274950889,-1.5562978738098616,1.4882382580662403,0.08280359172245276,1
912,5313,-0.028085527581787322,-2.2416132946409695,3.2854908960099123,0.6042558965638554,1
913,5314,-0.14284945036872995,-2.0593745434476647,1.5578768813845012,-0.11048168358829864,1
914,5315,-0.18436851574487498,-2.0555958507185075,1.8465135648486395,0.05518368713381506,1
915,5316,-0.09659743993619664,-1.3736119944965655,1.466394093795857,0.12994558499558603,1
916,5317,-0.1065931647477691,-1.9532941232845515,1.5948906522438873,0.03956236983550488,1
917,5318,-0.17932132988023056,-2.1674121769795107,2.0098626563259243,0.05098155665945632,1
918,5319,-0.087084542570345,-1.5200958989425777,1.5752779476531715,0.06988100806488537,1
919,5320,-0.19808238458063254,-2.283301792333277,1.851844856982733,0.0399632295108732,1
920,5321,-0.07070616991505498,-1.89279223183072,2.1434832781626736,0.15382711312782782,1
921,5322,-0.14291816936212776,-1.9241011910805224,1.885925756677019,0.06722835483855874,1
922,5323,-0.1633505445363295,-2.4044313457275357,1.9392372148911372,-0.0654962631715564,1
923,5324,-0.24561131001916944,-2.5354783785761232,2.247580780646481,0.06873664321337702,1
924,5325,-0.09966957509573948,-1.9856466673930875,2.143421293728802,0.12232649939796307,1
925,5326,-0.03303900374989366,-1.6674101477301013,2.018497814635331,0.15556968718096903,1
926,5327,-0.19865315704354583,-2.693310076309996,2.078016470537321,-0.07257922623147633,1
927,5328,-0.0933566328339669,-2.005476947862123,1.9801297696005544,0.11219352843085598,1
928,5329,-0.21195603598721804,-2.5844876666793875,2.0363241393830225,0.022091141326606056,1
929,5330,-0.30963011159481646,-2.6603743563201276,2.239878153508686,0.010689661969049214,1
930,5331,-0.1386914976079352,-2.2640167146736525,2.2509300503932375,0.16470810910028888,1
931,5332,-0.1318906956749836,-1.9638839561437234,1.940193233816348,0.08780967427681906,1
932,5333,-0.14276342554629068,-2.349098689120919,1.8767488859462582,-0.053379607157072836,1
933,5334,-0.1581382325187913,-2.617564886531764,2.0544418426118454,-0.05626128751017206,1
934,5335,-0.30074312890688715,-2.578591116516993,2.063860980615697,-0.08573229222642259,1
935,5336,-0.26944085044439664,-2.435497673182401,1.9494943060032277,0.08551733220053524,1
936,5337,-0.06593312684288628,-2.1051813664057653,2.3551013730656214,0.14438666962018007,1
937,5338,-0.09602977914301714,-1.7337470126000865,1.882561608171038,0.06873465899891774,1
938,5339,-0.17395641671369358,-2.705143764961611,2.1829376817009902,0.0599527086338984,1
939,5340,-0.3118996950257184,-2.8111440845397553,2.383207034952386,0.06432080524327399,1
940,5341,-0.178125696490439,-2.167570638524123,2.129098252225492,0.12279442917247126,1
941,5342,-0.04266955157965933,-1.8359620918663877,1.9288435487942186,0.02459344193526765,1
942,5343,-0.15350023342003835,-2.8031545488262264,2.2069447955220927,0.062441010640889826,1
943,5344,-0.2325127649357471,-2.8815883871444434,2.195043702517852,-0.06846057416118403,1
944,5345,-0.3185123562409862,-2.827480414012415,2.177752834536741,0.07044438149886273,1
945,5346,-0.2788157663098514,-2.848787175716353,2.4101043427278785,0.0701432956479181,1
946,5347,-0.17747784103855047,-2.113335752755473,2.19147520358838,0.1535376303766971,1
947,5348,-0.10444470844399521,-2.070181705187003,2.0332154494626917,0.02821178660585705,1
948,5349,-0.13072994882025252,-2.2364059405583836,2.20627756396115,0.10994679343044834,1
949,5350,-0.20820178001188286,-2.8770430377930554,2.3187896511518913,-0.027020401871594216,1
950,5351,-0.37348889732820795,-2.9721018655020224,2.3761465044878083,0.0017348059932883301,1
951,5352,-0.1922003712272158,-2.9280409976841977,2.3221421791994734,-0.06747012394293218,1
952,5353,-0.2025455796746151,-3.0077584342840673,2.4144032590508577,-0.05229168612806545,1
953,5354,-0.1966177032548316,-3.0310225484041453,2.353053058028051,-0.0900599391307958,1
954,5355,-0.07533238714966069,-1.8739390101034707,2.043243280987868,0.19164766327628374,1
955,5356,-0.0951099495807924,-1.990513620513288,1.9530887956317577,0.09035378678050483,1
956,5357,-0.11601686039510879,-2.0178898703469472,1.9943094435166562,0.1073813534425966,1
957,5358,-0.10175349067172784,-2.503773734465689,2.1029915632639793,0.017967970070956192,1
958,5359,-0.13759223242772897,-1.8654327912768625,1.8444820208748776,0.10537054826214003,1
959,5360,-0.24610491254745945,-2.3791217193016236,1.9784194897893783,0.06038601326096246,1
960,5361,-0.22959888737262898,-2.09878679705827,2.0814452291456784,0.18158440055982716,1
961,5362,-0.1548195673343028,-2.222650232718426,2.143123266534171,0.0879426682329152,1
962,5363,-0.20859136039924198,-2.859408338665615,2.25193296854049,-0.05753133448628626,1
963,5364,-0.390976270185194,-3.1281354044029293,2.493420818886826,-0.05018961814869802,1
964,5365,-0.2732907887886424,-2.9219642222609563,2.5395362063719498,0.04338680957483148,1
965,5366,-0.12284210316591061,-2.1479491348870763,2.370854319642606,0.11506527268435517,1
966,5367,-0.1323782969193712,-2.1857654979697,2.5665878162708013,0.16486643927726954,1
967,5368,-0.18008930690919356,-2.3224193832681257,2.2115548188901544,0.11581618743032972,1
968,5369,-0.11727311434076408,-2.19325107663333,2.140241830762032,0.08264019007668112,1
969,5370,-0.058942138722048655,-2.6116068553410154,2.4590944253732623,0.15069557459088703,1
970,5371,-0.09575603746256454,-2.131513088371837,2.4143340582926793,0.17485885436668566,1
971,5372,-0.08859219081255267,-2.058757148793317,2.419257894569626,0.18122022848815597,1
972,5373,-0.11760974625844088,-2.2031562369277258,2.5853106411776077,0.1839921829636626,1
973,5374,-0.1452968654233426,-2.3066554712200915,2.7918252358427256,0.2056040506885954,1
974,5375,-0.13610419400401985,-2.2837685014416884,2.403172179295377,0.03625390498566628,1
975,5376,-0.1510120818478568,-2.783478418549472,2.443930574410829,0.14076604174003643,1
976,5377,-0.3775544943797371,-3.26902419378088,2.607586980187256,-0.03811138506839125,1
977,5378,-0.0692014078195845,-2.5328522697345637,2.6870126872743807,0.12625589805270124,1
978,5379,-0.21774252840584032,-2.3346151882336894,2.6225469569871884,0.20523910908286053,1
979,5380,-0.1644481431712849,-2.4141534516574703,2.3798774940307443,0.052157551681287995,1
980,5381,-0.3428107179267565,-3.1561841532848067,2.558286030305969,-0.01688860381296493,1
981,5382,-0.12981407184565338,-2.544991002019372,2.806535809821871,0.13505955904074327,1
982,5383,-0.18498739979301693,-2.4148324024206627,2.2567303606391227,0.13506626035441985,1
983,5384,-0.13228203052097312,-2.1236965982767715,2.2058558720674326,0.09279273185884182,1
984,5385,-0.15621397039443113,-2.7327172033456018,2.141839181078333,-0.08259745710803541,1
985,5386,-0.10517486731568382,-2.6407841675973085,2.0975745788385822,-0.3181788500333987,1
986,5387,-0.11153328298554077,-2.0927631336177104,1.4857802611502762,-0.24168126783543578,1
987,5388,-0.04380900389950864,-1.361316893105018,1.553777141461666,0.18453789329015596,1
988,5389,-0.10069242758074319,-1.961645924315155,1.647569389401382,0.00996259231411198,1
989,5390,-0.05923854429898726,-1.9429691598748668,1.6259642703191082,0.0940018104212218,1
990,5391,-0.05650662485397665,-1.6845306590015552,2.016703812074415,0.17849300743003693,1
991,5392,-0.1439080604027256,-2.002805745264085,2.155170737162764,0.15062442377221466,1
992,5393,-0.14123211203373431,-2.2583786603708784,2.248859109256655,0.11981917902427493,1
993,5394,-0.12015324495053865,-3.0101713916724027,2.345357778439654,0.03836931641668736,1
994,5395,-0.13962396144112174,-2.696739978289404,2.2044995303241643,0.044837803289125525,1
995,5396,-0.11311929726066426,-2.7243721063094335,2.195435027321855,0.12053468105508384,1
996,5397,-0.09540805598261846,-2.8238900039863015,2.4300541950686325,0.1452671960315711,1
997,5398,-0.06088608067771936,-1.9391502257233,2.1327720163765758,0.05780174945826297,1
998,5399,-0.11352166885123431,-3.1228108083040285,2.3969033272508082,0.10981360910355736,1
999,5400,-0.11924785750334847,-3.2138007475576718,2.5201434235539297,-0.04920503887355052,1
1000,5401,-0.15325034463349033,-2.4278390402200056,2.1788148757252888,-0.10546078572550785,1
1001,5402,-0.010412333516761943,-1.6339782368343188,1.5680466697143216,-0.013533192151308321,1
1002,5403,-0.06308638716776029,-1.8771403780792268,1.984495685857218,0.16795977413603583,1
1003,5404,-0.1878953567240892,-2.71505257875497,2.2233242607938566,-0.028326418813469444,1
1004,5405,-0.07462259453373739,-2.2863861486649113,2.2131814106562033,0.061282392724925805,1
1005,5406,-0.14174713179452647,-2.4392842119487756,2.1309118553031112,0.07721535014812876,1
1006,5407,-0.1205601004863069,-2.4083212565211594,2.4094310018284766,0.0950545485711146,1
1007,5408,-0.164122719882095,-2.518056376600658,2.5734317733801504,0.11244497850433278,1
1008,5409,-0.056772463986471546,-2.5058070771985244,2.3035162975403236,-0.06706111594487596,1
1009,5410,-0.17599098400176247,-2.556233043557543,2.570467497905363,0.0910953582367017,1
1010,5411,-0.21251864300182813,-3.207523291776668,2.651468485945024,-0.029849782676483614,1
1011,5412,-0.02308487568085493,-1.891405968899888,1.892032194624035,0.10018365694585665,1
1012,5413,-0.011515068753309182,-1.7508081649424327,1.660180909987337,-0.02696519468044032,1
1013,5414,0.012002413619590577,-2.055779271918113,1.8849418795001127,-0.05354270312514736,1
1014,5415,-0.26420152106349,-2.475487508737781,2.095561207169835,0.11602334947571129,1
1015,5416,-0.08105007075930938,-2.085307445167814,2.053319499587194,0.046712674191478204,1
1016,5417,-0.27196075950851406,-2.5472069650127924,2.1849717424518915,0.03642858210045057,1
1017,5418,-0.2558352087779984,-2.9296169303938635,2.594927230275358,0.23533637398797366,1
1018,5419,-0.1594205938591083,-2.9036806882022037,2.551241611510246,0.022470127406883564,1
1019,5420,-0.24275419252210836,-2.692458538569234,2.316651135641263,0.13118066506057263,1
1020,5421,-0.22659256643808237,-2.8316336961391637,2.8379234415876304,0.0409135382619868,1
1021,5422,-0.013500835930083313,-2.0277041218690606,2.1579093600781554,0.045449987080904544,1
1022,5423,-0.09787737670787662,-2.3623570781187464,2.18683644600389,0.022081210633604867,1
1023,5424,-0.09843487098520454,-2.0931962545958998,2.033216380661393,0.050104024264162425,1
1024,5425,-0.2502825753127685,-2.6325826458667514,2.2534723665827165,0.058257115068319675,1
1025,5426,-0.35268958989692445,-2.7530849069987053,2.2959123879612022,0.014511456226349072,1
1026,5427,-0.512171811864736,-2.7373560877214316,2.4249894873907096,0.234560973165119,1
1027,5428,-0.07022938711032582,-2.3299767058442304,2.1879551343007213,0.02121967645128153,1
1028,5429,-0.15311432633663957,-3.4541941277301818,3.2338007252424887,-0.2134079906566024,1
1029,5430,0.03399376507905199,-1.6710028533204402,1.6181960774458004,-0.004524799010275105,1
1030,5431,-0.18325564242718795,-2.6006375341318284,2.062866582399402,-0.2049074402222823,1
1031,5432,-0.20139929200524367,-3.3519395507530794,2.141875158468962,-0.42400114133072886,1
1032,5433,-0.14292141258479732,-2.9159835583151494,1.9989409562150628,-0.12960052639918673,1
1033,5434,0.017906981233847596,-1.539042644807798,1.778824388563213,0.03453355408109128,1
1034,5435,-0.056159113184272115,-2.054858384721965,1.8256166587114402,-0.004099036465265197,1
1035,5436,-0.18485888395583647,-1.9624235309267926,1.6937609976563706,0.08052299744781284,1
1036,5437,-0.13655041510134477,-2.3666410797892263,1.8143935583064663,-0.21273232819986998,1
1037,5438,-0.03533338935830107,-1.496054622793499,1.6179937487368106,0.09075981119644098,1
1038,5439,-0.034325617834733986,-1.7047572371038469,1.5763989387032344,-0.045869672634201844,1
1039,5440,-0.0015452190570007657,-1.2197704064055097,1.130300619664617,-0.13549978933284273,1
1040,5441,-0.028989157496362907,-1.3021599760262355,1.3361336123581584,0.0608830115214373,1
1041,5442,-0.03902993661810711,-1.6819701446234123,1.70404721167078,0.005589618054708088,1
1042,5443,0.031247496119316768,-1.4023995881380233,1.3959782852843796,-0.11799553028531187,1
1043,5444,0.05991072716153351,-1.398266909938807,1.363087728338182,-0.15808052219387297,1
1044,5445,-0.2542848233025315,-2.0181632686068283,1.8254990115365126,0.1991810012249178,1
1045,5446,-0.03368413439160992,-1.5482619702952471,1.6904894677869757,0.08369871893415817,1
1046,5447,-0.09950402324805847,-1.353026520708766,1.3623551111257557,0.13400843110675656,1
1047,5448,-0.0469179169385922,-1.6462331471101717,1.6346654452497589,0.09056264455005493,1
1048,5449,-0.07825591596093347,-1.5560654169303447,1.6152994676773011,0.06343212861168634,1
1049,5450,-0.15182506616180572,-1.843080170501043,1.6289996048924178,0.264900389109045,1
1050,5451,-0.07000587207954345,-1.5215091839724613,1.5799672789043377,0.05009303541127917,1
1051,5452,-0.05303138697866297,-1.501368063605536,1.171159309665254,-0.04254003312089814,1
1052,5453,-0.09955465850175614,-1.4986896630570206,1.4798864978002864,-0.00013752549434486807,1
1053,5454,-0.026199571400725485,-1.3618789531130489,1.4626182157564256,0.04093296417597269,1
1054,5455,-0.0336161971861613,-1.9589830639577035,1.7836773739893497,-0.04027412133556668,1
1055,5456,-0.15273997490274485,-1.7071153052934567,1.4658847218260682,0.13245144828228456,1
1056,5457,-0.045473036423098634,-1.4006391059139742,1.3740325542544185,0.02507849725835467,1
1057,5458,-0.030776435788791568,-1.297010615844485,1.3365244211969647,0.026919924315388997,1
1058,5459,-0.1052874189916453,-1.6234868148116237,1.5387065961358553,0.2700095600806823,1
1059,5460,-0.1415075905006583,-1.8218564389760707,1.5025346517986837,-0.09602341089964567,1
1060,5461,-0.15737810603252528,-1.991488515775489,1.6879196935852612,0.10652427216195527,1
1061,5462,-0.08409387903732828,-1.6559776830807063,1.5290395588528587,0.13791293540488367,1
1062,5463,-0.03238639792885025,-1.407315659706287,1.4718186957430097,0.09889669223031462,1
1063,5464,-0.09392059893010389,-1.6980264621135948,1.5931352637932847,0.05796613692459544,1
1064,5465,-0.13127528943386443,-1.835280053694674,1.8834769594521843,0.10652120211932314,1
1065,5466,-0.005776037262470064,-1.4009497830026163,1.4915067577298426,0.06432985192358752,1
1066,5467,-0.07266083932583595,-2.7248977945078874,2.551628129982948,-0.03452153457729263,1
1067,5468,-0.09959613409234419,-1.888200377961931,1.927808922240033,0.04537783553760799,1
1068,5469,-0.057212249299834705,-2.581458463978584,2.0714830970567464,-0.10088290912747577,1
1069,5470,-0.02380383729990018,-1.7052750624218733,1.5678659449096441,-0.10576174793304907,1
1070,5471,0.058774703333287964,-1.199878150048428,1.3219118867768789,0.1276412038013542,1
1071,5472,-0.029366441015500094,-1.138218998685155,1.2757678987632182,0.1470100255819093,1
1072,5473,-0.09013026865525453,-1.5937965722744436,1.6781177428726317,0.12455080109598955,1
1073,5474,-0.12506212696257005,-1.7421449947083893,1.5784031118361082,0.0961966178948302,1
1074,5475,-0.0776996327337672,-1.7318373920832495,1.6604545213517743,0.06027897728482299,1
1075,5476,-0.18892272721762357,-2.006741845947351,1.884743438518083,0.20541833380546912,1
1076,5477,-0.12470335837538409,-1.9386422155538274,1.8375914564840325,0.03182791674499672,1
1077,5478,0.013790575100876468,-1.4944410636218377,1.5038161654218847,-0.08122295215906923,1
1078,5479,-0.029289577430685863,-1.7491425578980004,1.7752893346379008,0.021592114017863758,1
1079,5480,-0.03861212788232035,-1.9906576796260715,1.8461996115068557,-0.0038464777386790386,1
1080,5481,-0.0958414355253614,-2.40506125622014,2.1142462134625477,-0.05054576753035581,1
1081,5482,0.01761513063506177,-2.2569790335509383,2.5805315550379415,0.00109115228507151,1
1082,5483,-0.07370501953558047,-2.0863005386686404,1.9532671600418376,-0.0026296587551400265,1
1083,5484,-0.17859313539832075,-2.392690883131167,2.047058703050479,-0.13608878311456202,1
1084,5485,0.03950126493474125,-1.501843857978372,1.6030047858505028,-0.23657460592191104,1
1085,5486,0.03704083153654214,-1.9792318659130483,1.8003690318223213,-0.09827496981483977,1
1086,5487,-0.04794556181348606,-2.237660739398689,2.2903564823512985,-0.003761261859608654,1
1087,5488,-0.27325979416022245,-2.7219833480899425,2.8876264602512114,0.34646500914614453,1
1088,5489,-0.23516890194337117,-2.5761556127036744,2.319204847483698,0.12058669316061285,1
1089,5490,-0.22381479049751207,-2.175076352257466,1.8914032889841905,0.073819495362833,1
1090,5491,-0.22573767684857113,-2.224447175879624,1.8587163789692038,0.05008099288225267,1
1091,5492,-0.026662410237757894,-1.8937549095259074,2.0234293307790376,0.044693505205295456,1
1092,5493,-0.20231339179773877,-2.2233161905007806,2.412457522426016,0.2612459648948832,1
1093,5494,-0.08768988064683815,-2.5821449035447035,2.379222180159379,0.18817413112635087,1
1094,5495,-0.14720692884849115,-2.0488909868528613,1.8553014497343243,0.025159794567852847,1
1095,5496,-0.05317184733385039,-1.8012450031715002,1.980897586639624,0.049530489338333074,1
1096,5497,-0.05279439869116106,-2.1609839450212913,1.7942766376389683,0.0668082328754631,1
1097,5498,-0.09903746227665007,-1.7405352477345306,1.7596191932380285,-0.04403139782965967,1
1098,5499,-0.14124033958766258,-1.6229439707775983,1.4833083232491977,0.09478939915993623,1
1099,5500,0.04207882220443229,-1.0940913510981265,1.3011168793602113,0.11497193029697052,1
1100,5501,0.005422841689356865,-0.18560588334179634,0.2276013108938199,0.29042336510971106,1
1101,5502,-0.0070925285519692705,-0.341760447839916,0.30917088170535945,-0.45828311180920417,1
1102,5503,0.012675177604843104,-0.251041289668155,0.230020005881309,-0.00032874074698517847,1
1103,5504,0.009936555100373709,-0.24683800653827564,0.2387604451829537,0.139016938070712,1
1104,5505,-0.0006139123783012295,-0.11798727080208526,0.10921418975605965,0.005692812759041535,1
1105,5506,-7.251178247117632e-05,-0.1629310815551925,0.17973928134099793,0.3823781570141083,1
1106,5507,0.003579603134756548,-0.17880430133147462,0.20234936043329177,0.18223721528138825,1
1107,5508,0.008990788909258033,-0.2926538554961374,0.31749214157759176,0.324293831543167,1
1108,5509,0.005029747418639221,-0.2594824109006404,0.22858736977212057,-0.21883292827483192,1
1109,5510,0.0014729989801301338,-0.14025265949808433,0.13059363660164774,0.07813622604733599,1
1110,5511,0.00640039794737506,-0.2847264128525817,0.3286299640661968,0.6975490503250914,1
1111,5512,0.025422819318560816,-0.9829744441187539,1.0140468832008895,-0.03773452295888998,1
1112,5513,0.004577025742820576,-0.20270852779604592,0.23286003598410004,0.2371046492776074,1
1113,5514,-0.07970586088941618,-1.5128802354122088,0.7192849722206872,-1.7872227766868207,1
1114,5515,0.00782748907204864,-0.45742898064266646,0.4106204261479954,-0.3690585978904207,1
1115,5516,0.03220787479548504,-0.47366235511395693,0.6985912160420406,1.0622359788264069,1
1116,5517,0.0042901931782353495,-0.238651803782658,0.29154940112439753,0.5696627479974067,1
1117,5518,0.011136069637907588,-0.3011734575025764,0.29204284191536867,0.07005001973904061,1
1118,5519,0.01736678124838226,-0.35417366603161793,0.2939668576325354,0.15109650816319112,1
1119,5520,-0.0006027902578846011,-0.14892318618703354,0.15239315780871737,-0.17537391855134637,1
1120,5521,-0.0003532161931340229,-0.09731070042692097,0.09775993757962789,-0.3423264213542863,1
1121,5522,0.006910943174279957,-0.23071552246347277,0.25894487834468205,0.07121700195378644,1
1122,5523,0.010600902741775912,-0.2679145839253749,0.2602244844211292,0.11007094779466407,1
1123,5524,0.008824339403090022,-0.3262062899843631,0.37190799812822917,0.2108844498791439,1
1124,5525,0.035639475235610514,-0.5918970707349093,0.5703851968600215,-0.16950865108550242,1
1125,5526,-0.08555324366036514,-1.1538531718477905,1.1534480254433663,0.2749998190798745,1
1126,5527,0.17256593802112905,-0.5927237961205163,1.2898617077095407,0.9698173642354865,1
1127,5528,0.013376347991717363,-0.5020733376385058,0.4690137095941386,-0.03380329182689259,1
1128,5529,-0.00486141377937833,-1.1860025373404224,1.070014370537587,-0.16883725746989978,1
1129,5530,-0.10332710042503772,-1.0674459670850962,1.0789452312395924,0.3203178944122385,1
1130,5531,0.019237206148088274,-0.47866841907446467,0.44761938443125926,-0.07704920265868634,1
1131,5532,0.06704741410866136,-0.7976685650418847,1.303942886826102,0.9687450750568423,1
1132,5533,0.02537520810215126,-0.4865422757303334,0.4306665681075974,-0.12799235876588633,1
1133,5534,-0.0006492706836149165,-0.2145340952413558,0.2536719590666806,0.13516484926088354,1
1134,5535,0.011297482960118921,-0.3383809949310158,0.34583238863551735,-0.05558053318479717,1
1135,5536,0.06726574750666171,-0.6921243298338451,1.2574639613722627,1.2718716210761603,1
1136,5537,0.011189023139950368,-0.3740137528946005,0.36441897902801945,0.30533786303539107,1
1137,5538,0.005734166524358756,-0.22419666776057978,0.3152955524934446,0.4612651603633252,1
1138,5539,0.04165536572946084,-1.1073312001795288,1.1119506246271407,-0.024039037092614613,1
1139,5540,0.023320638717020586,-0.5001523708467663,0.4676904208195865,-0.013164819880181122,1
1140,5541,0.009569929536704934,-0.3713930074604779,0.381201301768533,-0.04563884898318592,1
1141,5542,0.0005199127357476338,-0.595749597704454,0.5537059804544875,-0.2777780645106681,1
1142,5543,0.0219025071258995,-0.5205146138315968,0.4699491336161462,0.2772275633814884,1
1143,5544,0.023101746550333698,-0.5468943682492733,0.6003667760024366,0.46088424803686817,1
1144,5545,-0.02482748063521544,-1.2071356457893376,1.1957833509107045,0.10766010701741945,1
1145,5546,0.008088650869568377,-0.24973900332210208,0.2675603742891825,0.2953178776927792,1
1146,5547,-0.0007495643858132731,-0.254852719468862,0.32771507796220556,0.3094821718842111,1
1147,5548,0.07965285287933709,-0.6506514002420386,1.2183454151997601,1.2680305477275078,1
1148,5549,0.014904864972716203,-0.38978655215853975,0.3562906123961851,-0.07347059618558803,1
1149,5550,0.03094400775125633,-0.7009798917294676,0.6453215398269676,-0.2421273352367158,1
1150,5551,0.022460155025507748,-0.6447922755808895,0.7059289854110387,0.4180341715489752,1
1151,5552,0.006465562341684698,-1.2164316595376787,1.2475252727889217,0.08797221386372833,1
1152,5553,0.016994065047438136,-1.524213951705718,1.534419589715462,-0.03285217919182628,1
1153,5554,0.47852794927585635,-0.790830778026292,3.4358692576864156,1.6715404142604793,1
1154,5555,-0.13850086492850563,-1.304303633536382,1.3017095839082646,0.35012826888108434,1
1155,5556,0.015206055261227633,-0.7325447088152859,0.6594747157680663,-0.06141432547203486,1
1156,5557,-0.1184062153716382,-1.262255619846685,1.2581796739276072,0.3360623266053291,1
1157,5558,0.023956887148395004,-0.4530273804522747,0.5062437856739965,0.2090800374366706,1
1158,5559,0.05397591488137299,-0.7376105015290213,1.1771701510326817,1.1649332611070642,1
1159,5560,-0.0007147516006443299,-0.2654245588937867,0.36996095362038595,0.3277795108644145,1
1160,5561,0.03998572921051766,-0.7031797096033725,0.7929321296557988,0.160266128510515,1
1161,5562,-0.09187734152343519,-1.5195230804068167,1.4921244775934372,0.190824190602512,1
1162,5563,0.0010520367075773588,-0.3305161760049158,0.35855217290176244,0.29731342104704683,1
1163,5564,0.2889677809819,-1.0870042346023645,2.310751053162036,1.266119143247349,1
1164,5565,0.001296109727105793,-0.2627673697453712,0.4031334301248545,0.8664923996382048,1
1165,5566,-0.006142472636970524,-0.6186329320960626,0.48470640639347184,-0.4493959164360147,1
1166,5567,0.08866656454867096,-0.9863395046033805,1.039285546128031,-0.0038450188176728287,1
1167,5568,0.005180286928961125,-0.5826340252480995,0.5061676195346023,-0.5258375831681592,1
1168,5569,0.13857519695912587,-1.8273511288923725,2.073750707855725,0.35424608475207187,1
1169,5570,-0.17139183238276676,-1.4356752243043411,1.449961986804214,0.3155836897385797,1
1170,5571,-0.0859996712600487,-1.3517548898488743,1.3856674040594474,0.2358016357650455,1
1171,5572,-0.08489048775455944,-1.4643878902327847,1.484520552032869,0.176613780423744,1
1172,5573,-0.30675006055555726,-2.837570861563586,1.6929239268446752,-0.31188907708558095,1
1173,5574,-0.054425207809107694,-1.494406081025026,1.5427994291749294,0.15341577978694526,1
1174,5575,-0.21699732167460947,-1.5188334948804572,1.519006627727016,0.4331347613718614,1
1175,5576,-0.10266473431493965,-1.5381601536129228,1.5352122541860636,0.1769132631256143,1
1176,5577,-0.18002532921016753,-1.3896038359239642,1.3860515106477176,0.4114628534896527,1
1177,5578,0.011763620968251114,-0.4000067226449483,0.4073843483016215,0.7201598143215626,1
1178,5579,0.04080773720430473,-0.549952531462093,0.6573399287500652,0.14889860615799272,1
1179,5580,0.0065947206754708235,-0.44586402478162995,0.495546031052796,0.5604203072779124,1
1180,5581,-0.00020497550962127303,-0.1705478021465212,0.18599552942753592,-0.07532951898299423,1
1181,5582,0.04282786795287339,-1.1452916577156802,1.1773384590985017,0.10947812640970063,1
1182,5583,0.01603728404779555,-0.480331251981514,0.5028181187786988,-0.019520635581276823,1
1183,5584,0.004168224501212785,-0.5216150256921461,0.5935907879633702,0.21182788691365942,1
1184,5585,0.22934410382329784,-1.0846726451961786,1.9805878702652788,1.126148306951398,1
1185,5586,-0.09610263587692192,-1.4305999541332177,1.4255957609447298,0.24020604244950453,1
1186,5587,-0.08621043294427973,-1.3397884536046578,1.374053695441669,0.21230352747703063,1
1187,5588,0.020943622738239954,-0.7663792355137705,0.6904377550967986,-0.19128183677559257,1
1188,5589,0.12010051145898121,-0.6316303230476533,1.4041141004373845,1.5969178821733376,1
1189,5590,0.019660905034793733,-0.5075704564724184,0.4559096846972777,0.04211340179482866,1
1190,5591,-0.13159261441883233,-1.2984480482192686,1.238518054310961,0.31343878947957665,1
1191,5592,-0.03075121498266144,-1.357979312846806,1.3934241868567527,0.12149598459159547,1
1192,5593,0.015342554094827182,-0.4494744346869226,0.4483766892002452,0.0690163435797645,1
1193,5594,0.0030555468413080316,-0.1836569887123545,0.20872181325669698,-0.0020607082511069513,1
1194,5595,0.0059276130204293535,-0.154653889460452,0.14324236509081723,0.0593363541925229,1
1195,5596,0.005269161917038949,-0.44491664685468096,0.507618737950144,0.23411800217490666,1
1196,5597,-0.06786509773322959,-1.266206483082831,1.2703032687446352,0.2235285012008148,1
1197,5598,-0.009854430027065578,-1.3459321111142626,1.5438053130055547,0.10069753322589962,1
1198,5599,0.07875209150675704,-0.7024500774701482,0.8489547871410299,0.23928418946024385,1
1199,5600,-0.023960337080864536,-2.425064996174133,1.9888570717775513,-0.56242022631941,1
1200,5601,-0.13000032935850445,-1.9554337257900656,1.8609724458637316,0.07509620007396066,1
1201,5602,-0.3458439158043393,-2.3143441366678053,1.7940080424644473,0.14759003735233014,1
1202,5603,-0.29150486264668124,-2.1125632363805913,1.9957210881001726,0.20509265265024182,1
1203,5604,-0.09356294947327472,-1.7076868104491343,1.8972020887289922,0.1376874099649368,1
1204,5605,-0.16296182572548948,-1.929783985135303,1.7223874836789341,0.09673370006655052,1
1205,5606,-0.02916582179189969,-2.0073809892220784,2.8166899273878814,0.476073447246698,1
1206,5607,-0.4969523665074555,-2.335056005350682,1.8625225159041277,0.35400685605503446,1
1207,5608,-0.16884356809736767,-1.8191569874111928,1.6239081511328557,0.12229980346395683,1
1208,5609,0.046661995243982894,-1.5619225607177534,1.547855465367494,-0.1447019105482686,1
1209,5610,-0.19097542789514996,-2.077662479181671,1.7192362126661456,0.08705105431973528,1
1210,5611,-0.11394498282187843,-1.7906529986704667,1.7045469816519025,0.1948069607442519,1
1211,5612,-0.20444789955429665,-1.8642536276535173,2.033020962956924,0.2765550501491552,1
1212,5613,-0.4095563890349851,-2.047533818464016,1.8305453030310719,0.41081239053622054,1
1213,5614,-0.2777451069969838,-2.131828845385418,1.827585830803534,0.21035126524428258,1
1214,5615,-0.24042076629408451,-1.9713294962075114,1.637876299836619,0.07112869186453813,1
1215,5616,-0.07088904292476061,-1.9069207249720743,1.913318679947363,0.19432544537561877,1
1216,5617,-0.06860347603198924,-1.5978559149681169,1.5789415016393529,0.06572229128078609,1
1217,5618,-0.37264794522802375,-2.369200672731396,1.8914424599935864,0.2651244302952372,1
1218,5619,-0.14240671077028758,-1.8005512776720851,1.6960640571257963,0.08696939543010704,1
1219,5620,-0.406323617421722,-2.353212492042834,1.7832943355254383,0.22706855315103455,1
1220,5621,0.024119748581178796,-1.633000051457731,1.6013702118580404,-0.086019592450036,1
1221,5622,-0.31576967008624585,-2.3032091261786034,2.109809161688019,0.28394483222474287,1
1222,5623,-0.2560976656602454,-1.9177094176016833,1.9026051039622924,0.32747444217107996,1
1223,5624,-0.2270790015809001,-2.183447773009565,2.465328975956074,0.44498915494326885,1
1224,5625,-0.4167369753620709,-2.3431039800542033,1.8408411170398373,0.22921759156529672,1
1225,5626,-0.052747872227201925,-1.7228451575963803,1.7054282746416813,0.06810279884747271,1
1226,5627,-0.20852595083392977,-2.1566055321065867,1.808349405426481,0.08917852152407323,1
1227,5628,-0.2886680492711546,-1.991518575026419,2.128475913456832,0.3983593589759734,1
1228,5629,-0.13583703029198843,-1.6995048223537321,1.6668613083160984,0.1315593635050422,1
1229,5630,-0.00823731598664001,-1.4557438687610034,1.4451608797277675,-0.06901070095170464,1
1230,5631,-0.17684116944655784,-1.9882397174284847,1.6394985384412237,0.0031077618353198356,1
1231,5632,-0.08641791135217536,-1.6543562187773206,1.7118622303234343,0.1360940142451894,1
1232,5633,-0.2796842975173625,-1.8763920266092116,1.7023459721106642,0.2895534559671023,1
1233,5634,-0.1612715736262975,-1.9472640146869613,2.0865965166164018,0.2852037255009043,1
1234,5635,-0.3025473124179244,-2.0816315870385447,2.0729075967235446,0.26905270971962253,1
1235,5636,-0.12458341546373976,-2.029133557552133,1.8180187317881351,0.10478087494088997,1
1236,5637,-0.17905250903947692,-2.1962305429908,2.3484676220548906,0.2883086690925095,1
1237,5638,-0.3654098562639811,-2.3046172333528383,1.794581574746648,0.1655531328253885,1
1238,5639,-0.2961087492692808,-2.189995679202041,2.1836447623449446,0.2512509838947924,1
1239,5640,-0.08714417633372921,-1.8894847186674908,1.8850379776292083,0.13951871306204108,1
1240,5641,-0.020768720538577232,-1.8571076851957367,1.8412379379542876,0.10342972618534406,1
1241,5642,-0.1215147484740549,-1.7709897303904265,1.9965098824030765,0.2032533978626798,1
1242,5643,-0.32174100203734457,-1.9946718199038178,2.1913931762899157,0.3893128020799238,1
1243,5644,-0.44318726994933916,-2.2359056102095316,2.20498536315115,0.44674859161152536,1
1244,5645,-0.34123869894249975,-2.01915253269037,1.7163252433435043,0.36854915885092004,1
1245,5646,-0.2375189550775231,-2.0169425284531215,2.264795962173493,0.43400830368959276,1
1246,5647,-0.024364121411867595,-1.7750495007379183,1.6613353600433651,-0.04360703563700805,1
1247,5648,-0.048561368171662594,-1.688885800653983,1.6697054687605881,0.06011975730502195,1
1248,5649,-0.3227203738535546,-2.3598380112289172,1.9189127408596593,0.31577679281017923,1
1249,5650,-0.07462504794614101,-2.1931460242268708,1.952340118541,0.019163498469647603,1
1250,5651,-0.3600672807360681,-2.4444168409627838,2.130261751571747,0.22300223186886303,1
1251,5652,-0.05123430777024574,-1.903774402156182,1.9044619456622225,0.045202406005286994,1
1252,5653,-0.07376336597793114,-1.7505746943962621,1.7351795082675636,0.09111268393721858,1
1253,5654,-0.0592682692334486,-1.7468815920159786,1.7073775312509736,0.055244379102723395,1
1254,5655,-0.4092485517584503,-2.259711731028284,2.4334921329445907,0.44202166284407807,1
1255,5656,-0.3490463513541114,-2.2263409948575146,2.397330914923763,0.37205293623311353,1
1256,5657,-0.31993572592942093,-2.134591456003152,1.8147199090937223,0.2518234825521221,1
1257,5658,-0.06144623795006348,-1.718534250368001,1.5778461432491406,0.013712553346497462,1
1258,5659,-0.49697457353477786,-2.461946918562712,2.0937682049894426,0.35132865316424605,1
1259,5660,-0.09612876706724315,-1.860300935391391,1.82546460778901,0.09070018637155612,1
1260,5661,-0.3085784827546945,-2.437013228443993,2.235990842841752,0.3563607267071841,1
1261,5662,-0.28702326556216456,-2.0361048153852592,2.343152129786337,0.3772058492190837,1
1262,5663,-0.28124876695754714,-2.1347306765094824,2.3552901045689127,0.363391354875422,1
1263,5664,-0.04398110842662565,-1.8540871712437874,1.6464106362989477,0.010975098535183657,1
1264,5665,-0.407045648046281,-2.4185747270287603,1.9487900969856826,0.24231578319954172,1
1265,5666,-0.018828686313058982,-1.9903268919508865,1.80341356519651,-0.0374827553641332,1
1266,5667,-0.18198131696434464,-2.4516499923767228,2.2681323032812557,0.0821783640488409,1
1267,5668,-0.2034301327319398,-2.4415341783939066,2.0974627415687728,0.09076636701208111,1
1268,5669,-0.0869629395080142,-2.261694549711768,2.068289895201975,0.13900302757895197,1
1269,5670,-0.3485107416911675,-2.131001624954832,2.131007583766558,0.3476236230174388,1
1270,5671,-0.21116530356604324,-2.106532917993837,2.30197435521044,0.23195490823731715,1
1271,5672,-0.0924339308576038,-1.9274498022127413,2.0394747984714834,0.13541025049683192,1
1272,5673,-0.29422014838292254,-2.153007757296945,1.9106294385599587,0.2020062443304954,1
1273,5674,-0.10157420948434241,-1.969920919009283,1.968397764952853,0.08831499189418421,1
1274,5675,-0.09001551761960654,-1.5040834805264907,1.8305367140940603,0.21879480385796074,1
1275,5676,-0.011698010837011871,-1.8324759846034642,1.786677995808903,0.019316606025963086,1
1276,5677,-0.09672453433982653,-1.8628189302788956,1.844609851471274,0.14871049452159996,1
1277,5678,-0.17696093119515588,-2.4039267217664264,1.9953903274513358,-0.012922191691804757,1
1278,5679,-0.16272734261962635,-2.1018932930113485,2.025736860752357,0.21146464405842877,1
1279,5680,-0.279616353132479,-2.312203726243623,2.115020474095248,0.21774248239160557,1
1280,5681,-0.27507706144265276,-2.611796845457542,2.4352610109729875,0.209744529149199,1
1281,5682,-0.049224299186045116,-2.1451286732947947,2.093268562246119,0.035404369219532016,1
1282,5683,-0.40121412796120265,-2.572301093183099,2.32340140748853,0.35572113618023854,1
1283,5684,-0.159379339364072,-2.468294458168344,1.9304899710502852,-0.001994755327574425,1
1284,5685,-0.0175393307577493,-2.1693346681974717,2.8170507194083516,0.45532410367447196,1
1285,5686,-0.4055750031982876,-2.3043054546092367,2.0964446352918307,0.372362048984008,1
1286,5687,-0.39333127063380235,-2.488745962830737,2.1642756128654708,0.26887662598519263,1
1287,5688,-0.5395917008455546,-2.704197242726655,2.124833431878706,0.3048403214842951,1
1288,5689,0.02974356301605453,-1.753762908269719,1.7008011087672932,-0.1159310365852163,1
1289,5690,-0.46707907325627457,-2.6186763354123657,2.4025732085822025,0.38080450645514996,1
1290,5691,-0.06591947259957955,-2.0033460396288403,1.7641758653485433,0.0033849852876333577,1
1291,5692,-0.3538404230601147,-2.3539880375775706,2.06377970181489,0.24866265367294663,1
1292,5693,-0.09571481787826397,-2.1140461422279264,2.1374146975258226,0.12874341517575982,1
1293,5694,0.017959184273592294,-2.0005627456365063,1.8145390976959785,-0.07989870761137273,1
1294,5695,-0.040565821024508515,-1.880700866933299,1.8403536728272298,0.014418018680268149,1
1295,5696,-0.2909427851833151,-2.5355835140029694,2.4574396889921086,0.318195197198223,1
1296,5697,-0.45480181051068946,-2.448570252796356,2.304109122292402,0.41753962156942376,1
1297,5698,-0.38550164049827096,-2.571233612422911,2.239576762180224,0.26074172656449673,1
1298,5699,0.00039491281263579386,-2.0594126667644286,2.0182381600144326,0.0177949043959303,1
1299,5700,-0.3768343922567962,-2.806447135681581,2.594641148329412,0.3413004057058255,1
