,Set_no,Imf_1_MEAN,Imf_1_MIN,Imf_1_MAX,Imf_1_SKEWNESS,Label
0,1,-0.019832610489416744,-0.7594529309227492,0.6697366252621799,-0.29126535087809685,0
1,2,-0.0005230174505774379,-0.4835448613657075,0.3728084869557501,-0.09550875728104209,0
2,3,-0.002994158728756583,-0.5157154556522695,0.4770358601650233,-0.13535166905733162,0
3,4,-0.06482614328646526,-1.1252797775010093,0.7639616153071207,-0.3307660554190134,0
4,5,-0.0484143387820817,-0.6661204635424357,0.5169380344220804,-0.006708145680534166,0
5,6,-0.07136658751360439,-0.5982428905792847,0.7969755940703764,0.23116537350498365,0
6,7,-0.054702948854972566,-0.6793832793704301,0.6605808110664219,-0.010546521586981921,0
7,8,-0.06504181429464269,-0.964276594758925,1.51756411944138,0.8796304897320855,0
8,9,-0.06906129675777935,-1.4605043453055555,1.3722392395065688,0.12164414869878486,0
9,10,0.0294076359108431,-0.8375110076531447,0.7409250047170475,0.023990396373412937,0
10,11,0.0007332747137736526,-0.8561603446680932,0.7484470880606438,-0.15721813733144405,0
11,12,-0.05951863927913103,-1.5783503269666181,1.5848910842949477,0.14930609441848788,0
12,13,-0.09518854833857582,-1.2231091199664226,0.8923786722086361,-0.22085303722778102,0
13,14,0.020374684992523553,-0.7485162976804831,0.6581603458284422,-0.22591088066193873,0
14,15,-0.004707954357895894,-1.1595898844025183,1.497854278363861,0.26472827846156305,0
15,16,-0.16373553314158393,-1.3118324590347024,0.9771189136268938,-0.07367688329275165,0
16,17,0.046776045119642916,-1.2904106634490617,1.4046879542094728,-0.019594475029369254,0
17,18,-0.11567184409122798,-1.298791167331803,1.561180879718704,0.23705167787912465,0
18,19,0.0996990029543733,-1.5861737138435232,3.2255562985865325,1.3967738691687328,0
19,20,-0.026782644283238875,-1.1609806444242663,0.9277070230047182,-0.4310026691428083,0
20,21,-0.13045669894353082,-1.556000178178409,1.4743501825872878,0.26610329015776996,0
21,22,0.03748019950627491,-0.8643346513167551,0.7476726565073981,-0.2195541952511864,0
22,23,-0.05392619142090588,-0.7573819216781654,0.6369981769065662,-0.13097079453125923,0
23,24,-0.07355010412479686,-0.8188826249587886,0.6873510435424248,-0.08544075536532282,0
24,25,-0.00812128609019217,-0.4624616271703077,0.4183581952872297,-0.1849178907730733,0
25,26,-0.00602671946536094,-0.47259828389329306,0.43664296488312615,-0.045777008005233995,0
26,27,0.013025942899671926,-0.42172676228970757,0.43960041051821697,-0.11066491942207486,0
27,28,-0.0006555436061375965,-0.3849798815054615,0.41137266975682074,0.028480597104537358,0
28,29,0.01185319371539402,-0.6579051084206514,0.5849709883917262,-0.05415696150142332,0
29,30,0.013659516898292997,-0.5050807286847554,0.5279926945003883,-0.07067263641273111,0
30,31,0.01379349188001965,-0.48188875918600604,0.4698143143747393,-0.005621078553812828,0
31,32,-0.05929212282286131,-0.8735540421190924,0.7265229458078531,0.009338554334015207,0
32,33,-0.11653951557446429,-1.1386059357426603,1.4963539403696724,0.4637414311760789,0
33,34,0.021347432656260018,-0.6286695486842574,0.5910700824004433,-0.0705647900673514,0
34,35,0.03204878895629837,-0.6583211883391742,0.5922346307772883,-0.03445851679290383,0
35,36,0.05471359546793366,-0.6993743436680906,1.0076805547464336,0.17380631348635114,0
36,37,-0.15469075925907125,-0.8671280616419268,0.9205459999671854,0.31030795735136313,0
37,38,-0.002477221117617665,-0.47155182241819465,0.5049892818066645,-0.05290004602362605,0
38,39,0.043511742021053235,-1.009451168345536,1.0656716383454294,-0.07609531701090025,0
39,40,-0.11138868753306597,-1.2531125667057466,1.0654452564601864,-0.10912704989381906,0
40,41,0.04815320343875932,-1.1883749930648924,1.0606594456160137,-0.07791466670319346,0
41,42,0.06172011116745019,-1.0188557087430903,0.9500520892906215,-0.040900152864607256,0
42,43,-0.2112643473374307,-1.6581790152442877,1.1906940546048566,0.0033136635280050426,0
43,44,0.04861435061850313,-1.2460732940189345,1.0946271035215334,-0.2685457605607272,0
44,45,-0.003759571888404256,-1.5422245364923244,2.547977278964004,0.9875077125668049,0
45,46,-0.13789102640697157,-1.5183149143574932,1.1887184489770355,-0.004451980336355086,0
46,47,0.0717534023237393,-1.165415481627806,1.0693432105878338,-0.30876413753779,0
47,48,-0.29723755656364337,-1.7190917554352017,1.2862623107568747,0.09261742929852076,0
48,49,-0.29075017101944206,-1.6901206599525138,1.2433372915850627,0.09436911557370946,0
49,50,0.08869467556621523,-1.0592940244021232,1.116553055714061,-0.04555240851900432,0
50,51,0.013570380117931284,-1.162152615723265,1.1191578498888646,-0.22205291695607218,0
51,52,-0.18425610581490973,-1.7490141133940722,1.370368226246523,0.016344647950010647,0
52,53,-0.1030721194552469,-1.682520222557811,1.3324482098636665,-0.08196026224593343,0
53,54,-0.3021624823291173,-2.014404283268644,1.4855027635986442,0.07969311627794548,0
54,55,0.10104030587687561,-1.2707672852059337,1.1423179177849472,-0.2880415429038047,0
55,56,-0.2163468341236379,-1.7860579356578783,1.3207827276910633,-0.1261245813519313,0
56,57,0.0381307493658242,-0.9167103716918449,0.8723969708622239,-0.20583365038246965,0
57,58,0.04066281143194025,-1.0690122926632997,0.9864959038283665,-0.23091772360143167,0
58,59,-0.08214572254984977,-1.2571800622302054,1.0023545303429762,0.1075655132842312,0
59,60,-0.07444106177465522,-1.0330575758801368,1.2061459468262665,0.3317055996144826,0
60,61,-0.05306645275298299,-1.0266714720599404,0.8160794532209747,-0.16984244615247643,0
61,62,-0.1365717450612273,-1.3657477218522551,0.9237148896482494,-0.11116939793264484,0
62,63,-0.14262574346910478,-1.2620102227927168,0.9373115455279342,-0.09856537896635643,0
63,64,0.00818023814230405,-0.5078000772281878,0.4503658998741328,-0.062282667817890436,0
64,65,-0.03204648640629902,-0.8204602783215025,0.7221176500427735,-0.1491621639954503,0
65,66,-0.19131394952962333,-1.1161714341309188,0.9717775350473676,0.15379616566353024,0
66,67,-0.24317368798889605,-1.432416310428583,1.0621186816812556,0.13126495973046398,0
67,68,-0.12376255061641546,-1.1764141614547579,0.9643125115974431,0.05523895764387008,0
68,69,-0.06401312082927643,-0.6598193455650623,0.5471810643813444,-0.02642751751618596,0
69,70,0.031106143027969744,-0.5326953567749069,0.5948483106419669,0.0005427531307196213,0
70,71,-0.12961350372324398,-1.0366337018904814,0.8718938243275861,-0.02452330787758465,0
71,72,0.03821285130321524,-0.7224977455213721,0.6826295286305955,-0.1626329093355004,0
72,73,-0.1916831065837705,-1.1897114879577924,0.9257390965617611,0.10165288769465605,0
73,74,-0.002945827504684992,-0.9129302122059373,0.9049298558957359,-0.1776057739457128,0
74,75,-0.3006176711180169,-3.1603200498976456,1.6954007737507601,-0.8241648334839414,0
75,76,-0.033258109782750254,-1.0298089272409465,0.8739169206760957,0.02567437960089274,0
76,77,-0.0023844015403444697,-1.0028761105714337,0.8998411617558816,-0.2034720270481001,0
77,78,0.012255124046750129,-0.98780450103166,0.8572149614646325,-0.22715158872637503,0
78,79,-0.016776325000449666,-0.9566189238715623,1.6192589928476844,0.9996367684226974,0
79,80,-0.06748671976296144,-0.7641068412412052,0.6106462292926014,-0.17102925093648516,0
80,81,-0.11442145150271005,-0.9428105369301085,0.7646169873943969,0.07792574690850987,0
81,82,-0.015030891539333263,-0.5075458843963041,0.5879681529400518,0.08017246286996894,0
82,83,-0.0004230560297881468,-0.8287975361926151,0.7941106110281653,-0.14461224204796996,0
83,84,0.10441273714779471,-1.002616682115526,1.2729680837868111,0.015661844908926723,0
84,85,-0.1509453209303169,-1.294186692200731,1.525662624991798,0.354965450366954,0
85,86,0.06583099838863334,-0.9304219712969577,0.8519085407268228,-0.3040512984778437,0
86,87,0.027898414862786172,-0.6657436042445766,0.5869507475632281,-0.12234336694767828,0
87,88,0.01230624455913828,-0.5148546238918057,0.5220210409013077,-0.10634933271551474,0
88,89,-0.146818594977949,-1.0997025864689145,0.8947498811245513,0.10547020449268896,0
89,90,-0.06802906593339066,-1.2624565842662143,1.0451651507862278,-0.08914706763576058,0
90,91,0.01878440222506672,-1.0712360846065314,0.9542371260463036,-0.27607237652822003,0
91,92,-0.26125617563014086,-1.5905013425595453,1.1649386478415629,0.07824416586326108,0
92,93,-0.13022232886447496,-0.9802734792682496,0.6697306660451512,0.14149422024562017,0
93,94,0.013145867645551465,-0.6303722895951916,1.011026454227541,1.2511735665948904,0
94,95,-0.10826197639503231,-0.8481038496339346,1.005542166442858,0.3484366427506393,0
95,96,-0.18629101035678966,-1.0742693349401038,1.279474336879491,0.33245224842126103,0
96,97,-0.14918858045081354,-1.211230704961385,1.2966416339156068,0.27030960316697705,0
97,98,-0.12416852555499452,-0.9462969254321176,0.814908826881447,0.3318693326445261,0
98,99,-0.13996228904390906,-0.7697986288584523,0.914897057796902,0.37644097690350736,0
99,100,-0.06811200815520618,-0.9070560094008011,0.8173842041456778,-0.11682061726796646,0
100,101,-0.09566394349216888,-1.0407348808671237,0.8952465781224062,0.08126858600166562,0
101,102,0.01638264754187075,-0.9179485221898813,0.8730469965191985,-0.005694481574656628,0
102,103,-0.015038378322725747,-1.0697271190874875,0.925040518998566,0.02369856454324591,0
103,104,-0.04929388176374783,-0.7662740371517585,0.8530975811911203,0.169132593529934,0
104,105,-0.06869410786538216,-0.7101854466986697,0.6420550928674569,0.10054445063934167,0
105,106,-0.13121157777897186,-1.0692078089864268,1.1224008950138669,0.28113831616910206,0
106,107,-0.029604661068248498,-0.897073446720629,0.7949405587109537,-0.06719325970090653,0
107,108,-0.051407308731337344,-1.04024869301358,1.0416862305807593,0.14586305178434159,0
108,109,-0.042365990643647426,-0.904873998470909,1.0684990498510216,0.33544694759598587,0
109,110,-0.11025415991623923,-0.8501612833305587,0.78119952306863,0.15374082766652408,0
110,111,-0.1753019473322025,-1.1740807570250957,1.0059898449921036,0.0987305461830383,0
111,112,-0.215801478577803,-1.3830687662152652,1.1461747781459741,0.09809120413890743,0
112,113,-0.23332782362081828,-1.5381986234188365,1.212056566394301,0.05993906464909692,0
113,114,-0.2728313696023663,-1.6687875861811672,1.2852899343229311,0.1113151142955674,0
114,115,-0.3117053538126844,-1.7557835347068267,1.374846573582392,0.17249222305060136,0
115,116,-0.25336451872581134,-1.6799367282112638,1.2947321219056156,0.0872807550088004,0
116,117,-0.20545500354676371,-1.4868946756518318,1.1863635564184292,0.07641782651922571,0
117,118,0.020451193343030746,-0.9301139237482505,0.8765030810548808,-0.06863498202277596,0
118,119,-0.12965742251760604,-1.1402471827814353,1.0146854293446006,0.2170946339741914,0
119,120,-0.000466891428635025,-1.003875373889755,0.9628337491560671,-0.11725335350372967,0
120,121,-0.11597810160023268,-1.3381645008534235,1.4405461551866068,0.2165521983741417,0
121,122,-0.12703103472093868,-1.2535051693253272,1.1173427389362907,0.049980010641772196,0
122,123,-0.20607130585290356,-1.3485086224118283,1.0236214790852567,0.1345316041334915,0
123,124,-0.0030368732723617467,-0.8766480807838318,0.8281707960891562,-0.08348593154297845,0
124,125,0.03511603217442483,-0.6896554281384665,0.6720531980847126,-0.08754082841848737,0
125,126,0.031125601744266956,-0.9793455351615601,1.021675840533448,-0.05790762373483812,0
126,127,-0.16262494013542966,-1.207182379638903,1.1591057906174629,0.21954554706183582,0
127,128,-0.09453129735194989,-1.3112701699862503,1.4098798491253075,0.21759626449528338,0
128,129,-0.20758722442500155,-1.5369612437926614,1.5874545776860873,0.1983427713896607,0
129,130,-0.1489235905559673,-1.3382126960602432,1.1645963482573722,0.19191874834393116,0
130,131,-0.08897724477193612,-1.2395906476857457,1.5339375870527723,0.44349893384734235,0
131,132,-0.12688535263524114,-1.1472159144712646,0.9758978215773029,0.16980401883901544,0
132,133,-0.04092356253728408,-0.9355792868726875,1.0210163627603956,0.15861395470020878,0
133,134,-0.015793764806589772,-0.9787707127551835,0.9693863415164102,0.008869192501783816,0
134,135,-0.11874712443470514,-1.4234409811373268,1.1830048454902347,-0.03341495400812395,0
135,136,-0.08927808954414991,-1.391598795347023,1.1207819764837414,0.09052341077929861,0
136,137,-0.14686329859719008,-1.554016174146314,1.1807060190089924,0.15374699039102188,0
137,138,-0.04883730445515954,-0.8853699098112783,0.8194762643267611,-0.023407646869094897,0
138,139,0.043419703350708216,-0.9667170251564068,0.8985682979485728,-0.10998724756672203,0
139,140,-0.2188428978321907,-1.5380574531293374,1.238387897549007,0.11351486317925799,0
140,141,0.07181550282058646,-1.1631927348904614,1.0824963884496022,-0.13080801784435947,0
141,142,0.004377614560620967,-1.2480245437770836,1.1738098715568817,-0.07034513372846446,0
142,143,-0.3204850698032805,-1.8028712717317115,1.9120105995771444,0.4101697545631704,0
143,144,-0.1945348517847035,-1.6910768519178125,1.539388267408187,0.11316558901456582,0
144,145,-0.08135066916128587,-1.875091516170993,1.5185698306430704,-0.04721742485001962,0
145,146,-0.28390061990083576,-2.140283616211602,1.6208294615737158,0.0336280000276077,0
146,147,-0.06335631644281738,-1.4812679029328761,1.3462870626471544,0.026387996526370916,0
147,148,-0.2847874302187662,-1.7404109718279983,1.3169195890143754,0.11814807069530538,0
148,149,-0.23156078445222197,-1.6510103935559979,1.2327775785447532,-0.08082221985212182,0
149,150,-0.19477117310045192,-1.2412411205119498,0.9768012132776757,0.0495739618841144,0
150,151,-0.2263670171682135,-1.556403744217297,1.1935355075244076,0.03548742758070188,0
151,152,-0.1676829129044397,-1.6464102484349696,1.2571298446896217,-0.1256508462618123,0
152,153,-0.16978631893548835,-1.7853326055597434,1.3755542126907834,-0.0752738636098334,0
153,154,-0.26579951237069394,-2.0158018270899998,1.508972523168491,0.04527971217039594,0
154,155,-0.29159894658288155,-2.1431302130556626,1.6127324241325924,0.014103048651401388,0
155,156,-0.3071115381949893,-2.2125857137746388,1.6511326377045643,0.01827396536863439,0
156,157,-0.3297625292818598,-2.018048607465411,1.549469809895171,0.16131395299118972,0
157,158,-0.39018989523169445,-1.9336648891570705,1.6414358777050566,0.3554643524130395,0
158,159,-0.18554059555070065,-1.8498824875235125,1.9870225378518194,0.3088152133138489,0
159,160,-0.193457414770568,-1.8406573075221582,2.0279922612384644,0.3518934492223775,0
160,161,-0.20267497361797857,-1.879729666964133,2.108305518603871,0.3512156437813304,0
161,162,-0.15806744791183677,-1.7180415772880535,1.9285118832271342,0.37444124897262815,0
162,163,-0.10710809423502354,-1.742463623212175,2.0498457688597664,0.43284217242586076,0
163,164,-0.046178454824731874,-1.7377368092417567,2.0133933548869347,0.4235552786573979,0
164,165,0.010251643831559836,-0.8551882195911845,0.7863956350639894,-0.1688431490153462,0
165,166,-0.19335628879993005,-1.3133086381354282,1.017535350970078,0.04035088416943287,0
166,167,-0.22347789696419743,-1.4439925777380211,1.1421060584803462,0.050535481526045756,0
167,168,-0.15028169547272172,-1.3920056396755913,1.1583805485881342,-0.10401379187054291,0
168,169,-0.06955030288953194,-1.381950153205695,1.12632979223083,-0.016509996995932696,0
169,170,-0.11401277260234821,-1.0983160717670022,0.9264558951793953,0.09432395666200498,0
170,171,-0.1674724940587815,-1.2522917617992848,1.1411027801573859,0.09202975556509915,0
171,172,-0.22977500628990666,-1.474747870011912,1.2691742645849176,0.1402416118408508,0
172,173,0.0810692566573422,-1.0427659940123293,1.0124427521996435,-0.181122003037636,0
173,174,-0.02304818516762919,-1.1687921266740595,1.0211013181008353,-0.17585158216056093,0
174,175,-0.044284228353337125,-1.0396822459526143,1.0104299732493631,0.024985056642715664,0
175,176,-0.0730847034824446,-1.0977651086920863,1.032430813502333,0.0723896850068636,0
176,177,-0.08285927522845435,-1.2087357381305275,1.1434556179456021,0.06836677165069407,0
177,178,-0.021814292886542772,-1.1863778722229283,1.1681222357442786,-0.07218674537907026,0
178,179,-0.1884499133507629,-1.5413800712384516,1.3308358988787812,0.2066452660202199,0
179,180,-0.20252177664568685,-1.5652278555749082,1.3693558886095492,0.16791807068727727,0
180,181,-0.20633910914235062,-1.6162633651609375,1.418991573610972,0.17450764164706653,0
181,182,-0.10682854541805105,-1.3647467018548674,1.299049562007355,0.15865730391733132,0
182,183,-0.13267653657524356,-1.760017638704482,1.1572831458524533,-0.2523474693114129,0
183,184,0.008863174361805328,-0.2821342866138299,0.3403307683028146,0.49119107667399814,0
184,185,-0.04032236727116838,-0.4487114111961198,0.5323865767711246,0.28449596304956576,0
185,186,-0.04474234648502238,-0.5340719903535219,0.48455039993022553,-0.030837355773779062,0
186,187,-0.0479277138931063,-0.582399366080139,0.4737948436347193,-0.07528124936879102,0
187,188,-0.05558203778115774,-0.7341354010005461,0.5409003959162252,0.11174825585925213,0
188,189,0.03292356874723684,-0.6944742374572077,0.8461036259490264,0.13679343393412896,0
189,190,0.03688415379408506,-0.6965386558880369,0.6621053601418225,-0.12289183088742515,0
190,191,-0.048669305749416976,-0.8148198798580325,0.7244339464151444,0.1395263009829687,0
191,192,-0.07382670058499212,-0.7516184973713615,0.6698795779239509,0.08147125049272005,0
192,193,-0.07339988944164257,-0.6925475185963681,0.7658519357514117,0.21478733488768462,0
193,194,-0.07517503774472206,-0.7517246632995025,0.6562251499170502,0.04873540231504979,0
194,195,0.03597495160787481,-0.6440227686064742,0.6194819215030362,-0.08367172816455704,0
195,196,-0.08880925443028348,-0.9900892783467861,0.9344138409335222,0.173217173387701,0
196,197,-0.12673377162971083,-1.1753868460628576,1.1755390388671132,0.295288741496604,0
197,198,-0.05311734412800596,-0.9507847564683256,1.1156614555695945,0.3301232491019613,0
198,199,0.03093426604254665,-0.6622840485329354,0.6147744689057175,-0.11017479444537728,0
199,200,-0.12147926604540527,-0.9946770875343592,0.8764560452079979,0.18280041658375734,0
200,201,-0.07286198414271498,-0.7915640625007927,0.6911950651434493,-0.060460403372755,0
201,202,-0.06509923861381513,-1.3919953185928966,1.438112226150435,0.09448990585577159,0
202,203,-0.03035170607356835,-1.0882523772167185,1.2166460728248467,0.2419924359242941,0
203,204,-0.02141287640228177,-0.5220861684176002,0.47017907343760207,-0.007140198412356899,0
204,205,-0.00850178564698713,-0.6175034226224447,0.5606819499769966,0.003728490219489,0
205,206,-0.05958299038570176,-0.7579323248459648,0.6974139345238906,0.09848253223496457,0
206,207,0.0349871116559776,-0.9026631904555993,1.4945732692566003,0.5888330765936953,0
207,208,0.01437714373730443,-0.6590239902360513,0.7749758641519391,0.15137157492267952,0
208,209,-0.09095724857519487,-0.8809912549419765,0.7719829047660289,0.06079288604034676,0
209,210,-0.08313595645986097,-1.041100324093907,0.8399114176895199,-0.05589499432980327,0
210,211,-0.03833314834456017,-0.8019083536098439,1.0011071161913472,0.20544834839672757,0
211,212,-0.07218417283931905,-0.8425646114099268,0.7903149272244432,0.05922110115582441,0
212,213,0.03757550718751831,-0.7179625302333572,0.9723289464879399,0.22690041523031865,0
213,214,-0.07265730352290949,-0.9951321914035114,0.9369924294577006,0.09701801937837141,0
214,215,-0.05772713784350777,-0.6966567023356967,0.6832727965917291,0.06827139157315304,0
215,216,-0.07048735066427252,-0.8118866009729057,0.6665566523551252,0.04134192206451728,0
216,217,-0.055776271210926626,-0.8624967205805165,1.0319619394088653,0.18181887568527455,0
217,218,-0.06772478649377876,-1.1762414870140374,1.2070872731559223,0.11385859590990753,0
218,219,-0.07718722342258376,-0.7914540915907069,0.6187001782926291,0.07255263004701878,0
219,220,-0.01813664197108165,-0.6631631347275146,0.8015978135890081,0.15001605845451427,0
220,221,-0.042599082332932366,-0.7180100443965564,0.6970760532307028,0.047136041749114226,0
221,222,-0.02720086494529599,-0.7452197410593508,0.5765505153455772,-0.07538919776461857,0
222,223,0.016331568442216796,-0.48659507002899594,0.5176255532255329,0.1643201279317692,0
223,224,-0.026056484534667884,-0.5763415344571837,0.6901925874493733,0.25684455616649543,0
224,225,-0.045054673140190966,-0.680049314888233,0.6590857363389258,0.036394547463334016,0
225,226,-0.07561628601310215,-0.8666994753167382,0.7623394832325535,0.0020752315639886746,0
226,227,-0.057671270668109266,-1.0404433348637072,1.299565452381398,0.26689950868616724,0
227,228,-0.09842010928556351,-1.1347588319017008,1.0120593693066469,0.04270013784398548,0
228,229,-0.01893162003365705,-1.1965441132486752,1.2608830753945521,0.0957744127656853,0
229,230,-0.1676732028132755,-3.1424293802081236,1.8577947036665767,-1.1798231813396782,0
230,231,-0.04396643519364951,-0.5976322715859415,0.5050593951275811,0.055083106064848154,0
231,232,-0.024766244596856585,-0.4029934914458989,0.36627845114847307,0.22093342820817816,0
232,233,-0.026176321864827743,-0.4839467433817467,0.38133998380819384,-0.01763582611433533,0
233,234,-0.017568878294526125,-0.4674422288863975,0.5406118467816412,0.18680555746922717,0
234,235,-0.01656439808592709,-0.7647727362384129,0.6976196849528644,-0.08088303317171157,0
235,236,0.00082719160185004,-0.7959417120170567,0.8237455956272899,0.0756528356505056,0
236,237,0.0058536935724281675,-0.8118231244664196,0.8983214706410949,0.20474015791364816,0
237,238,-0.0015605040134919139,-0.7609712162247946,0.8628072140234511,0.09607353171780238,0
238,239,-0.016909507327134077,-0.6509312252615101,0.6089395389106048,0.14437032001033287,0
239,240,-0.016062678498454375,-0.5633243526165475,0.5633611337803932,0.03853775202464435,0
240,241,-0.007927971941488664,-0.7281711170645093,0.7717665526439572,-0.04549465297009401,0
241,242,-0.022505124607329702,-1.056106755258522,0.9393709592803466,-0.0006903631710676228,0
242,243,-0.04450393826599456,-1.298628285254126,1.0210510841075222,-0.09662400823170246,0
243,244,-0.07049108014270211,-1.2717744851275015,1.0335275234564132,-0.08134775855531844,0
244,245,-0.11129111319809369,-1.579471861746676,1.4355464778530602,0.09229996423180176,0
245,246,-0.04277976001897765,-1.0183426005434006,1.2135349544295546,0.1925570639957292,0
246,247,-0.03879298139391352,-1.0441136728230203,0.9839456483176636,0.034596196138645265,0
247,248,-0.0763047834419348,-1.6871551484666916,1.5240137113214969,-0.07044187465090858,0
248,249,-0.03302824663018105,-1.311770474900942,0.9272222944351523,-0.27721786551405386,0
249,250,-0.0281333014954403,-0.9090559532528322,0.6711895617639501,-0.332463130960366,0
250,251,-0.037447794364493255,-0.935921198865785,0.6768105727975358,-0.2291801870934813,0
251,252,-0.044582617875233606,-0.7330769918592988,0.6466777928744176,-0.04049756500697371,0
252,253,-0.07592734050266713,-0.9025649829478035,0.7993728052853892,0.09273478814010229,0
253,254,-0.008997383126261983,-1.03474469637952,0.8059902262985654,-0.1481856986076002,0
254,255,-0.006387329885747503,-0.8527258645790571,0.9134179292092479,0.17826816485696315,0
255,256,-0.025598756078504453,-0.792313293079439,0.8266125134596708,0.054197802599844275,0
256,257,-0.02460031602240129,-0.7766872157653317,0.6785033407066203,0.018318178202026036,0
257,258,-0.01898386209837202,-0.6376528006261823,0.6049575199843116,0.0407687853480116,0
258,259,-0.03909512610277007,-0.8401014767988865,0.6834178899293593,-0.08881148141036246,0
259,260,-0.05244228466916082,-0.9248138490913798,1.0465842000647883,0.14158937178151196,0
260,261,-0.17584458313283866,-1.8439412466689604,1.1373223391438936,-0.5861424857821802,0
261,262,-0.024802733895990043,-0.8246318127653692,0.7603796328852834,-0.02812552661150086,0
262,263,-0.046415063150613826,-1.025945762853844,1.072805902886544,0.08248239804489846,0
263,264,-0.05590504935099733,-0.8225393514102403,0.7466364126023302,0.08447776908732729,0
264,265,-0.023554373807502697,-0.6383998871222625,0.6123098200897987,0.07248751505623185,0
265,266,-0.02091866382142904,-0.5028490773099159,0.4530618753611846,0.12399075743938696,0
266,267,-0.02233043518668894,-0.4256422591878466,0.40475927719907856,0.06859858254103829,0
267,268,-0.023933399215560074,-0.48148924353106887,0.48010627716060295,0.08551866084338612,0
268,269,-0.06137609450867293,-0.6566306630928895,0.49704999667819294,0.012044829091123836,0
269,270,-0.004597638918744301,-0.5233427511398523,0.6123067550476522,0.1948296714359968,0
270,271,-0.033256860550403396,-0.6061600240811532,0.5723289440287536,0.030103891228149986,0
271,272,-0.009187976135478214,-0.8114094087796071,0.7842035654352499,-0.1038977101260843,0
272,273,-0.05148462486429947,-1.204776983659891,1.3113113341976104,0.08736949079304314,0
273,274,-0.0771192610307746,-1.1468175146554218,1.1406414824425182,0.10849467230672731,0
274,275,-0.04240984564871483,-1.2546402279757582,1.1838513854646018,-0.04398217462090484,0
275,276,-0.35069284774081505,-2.8758642211232144,1.8124354052070943,-0.36083566562841274,0
276,277,-0.09700278502893574,-1.7546978276080623,1.7491961020436597,0.0694565001785815,0
277,278,-0.11377598844631644,-1.5912804008618777,1.5645362281950481,0.16056299409614205,0
278,279,-0.03716290218810349,-0.8769613509744265,0.7349420055529318,-0.03130846187307359,0
279,280,-0.03540710463568996,-0.8788683046403765,0.7734100562810339,-0.032665290917898035,0
280,281,-0.0380536815414911,-0.9430307394248569,0.9767087360639324,0.1114715804877895,0
281,282,-0.04891771275280027,-1.004144053419267,1.0624460592221352,0.14032043221610843,0
282,283,-0.041196321926305186,-0.9438213502686976,0.8766712835714214,-0.012145847171517158,0
283,284,-0.07565729886007194,-1.0136652043599597,1.0632322594923833,0.2272117908110878,0
284,285,-0.028017285485691545,-0.743135009988366,0.5894374184485845,0.10874857162320582,0
285,286,-0.03840351372110639,-0.7891542653500903,1.0189419704084401,0.2100868834812239,0
286,287,-0.07012050617778673,-1.2239964389004072,1.2610338611158258,0.2096725844939006,0
287,288,-0.07893613366610204,-1.3197593020386793,1.099974818909495,-0.11581196747561082,0
288,289,-0.04576450042831789,-0.6593612817449022,0.5947334545944843,0.13668316165163924,0
289,290,-0.06343045354058759,-0.7027214043544512,0.6562243425044729,0.031040926273122035,0
290,291,-0.01454076889908565,-0.8258575192448537,0.7705161448685383,-0.12561954975357728,0
291,292,-0.08924948804362152,-1.0798795258053349,0.8498592408359062,0.03761827650734726,0
292,293,-0.06308776505559813,-0.873870700639449,0.8088951471648262,0.0709548664646199,0
293,294,-0.08230120473589653,-1.0765093508570334,0.8420995764506942,-0.040010233734144154,0
294,295,-0.07387542056020373,-1.4316411514748488,1.3210855824340009,0.027807357748615962,0
295,296,-0.03473090198681874,-1.529010428610053,1.446751182068752,0.00691632975310357,0
296,297,-0.10614583039971198,-1.7465615814393909,1.6148621325571395,0.11478971008991232,0
297,298,-0.08354106873593592,-1.938440917094654,1.76938912118599,-0.03767321872383698,0
298,299,-0.12056398243436095,-1.7010933284259546,1.717818898687608,0.13589908305595297,0
299,300,-0.05528516610311494,-1.311785830543216,1.0801048413995444,-0.034663622836649775,0
300,301,0.018318364637538796,-0.4793670023386503,0.44664778297624985,-0.09707201807888485,0
301,302,0.006354421506383941,-0.5654486451861157,0.6053943846458383,-0.10904446718749307,0
302,303,-0.013724292572649953,-0.384375829709471,0.3326529161177691,-0.04668339121005076,0
303,304,-0.007923982543150312,-0.33454126354136826,0.3089622758272605,-0.334228478396036,0
304,305,-0.002781301839174749,-0.42863659192997766,0.3420901605718546,-0.13051281019650687,0
305,306,0.009665152128748215,-0.25757541059955064,0.30834408916686956,0.2916813957878712,0
306,307,-0.011812730054378023,-0.39617228798725723,0.3398914032586276,-0.025083853489495038,0
307,308,0.025619159184417862,-0.4004043928588962,0.5958982747920907,1.0101223760709281,0
308,309,0.005371254629132758,-0.24723591690066088,0.1731235331973263,-0.3930236567897691,0
309,310,0.003052674697965244,-0.18884926519386386,0.208435473615807,0.1752316879088551,0
310,311,0.0013339750874118061,-0.33451652247896785,0.41778246626680826,0.550113311712023,0
311,312,-0.009870473487233059,-0.4192878844924301,0.32523260666224435,-0.928806537286932,0
312,313,0.0058763149355211056,-0.1962250792054327,0.21538001347586938,0.03891824194135047,0
313,314,-0.023737243643856796,-0.37359608248489284,0.36704514343037187,0.0407227826479238,0
314,315,0.03819856892464022,-0.4509243570866999,0.7037355464618944,0.7022049362179553,0
315,316,0.00850731862498672,-0.3403208017780315,0.4001012155448474,0.5499081846644027,0
316,317,-0.007751913379063516,-0.37396526282464515,0.3456081030733792,-0.24623966172035572,0
317,318,0.03238454130312068,-0.42945570810697703,0.6293873188713732,1.09150098552985,0
318,319,-0.0012393006580509233,-0.33352634646964485,0.280348626360743,-0.10868218594353181,0
319,320,0.00020679892258427014,-0.13676792541192404,0.13592889284007365,-0.046280665060125896,0
320,321,-0.006193178960222416,-0.2961305441015063,0.3136772320041288,-0.08051890824739709,0
321,322,-0.02907677118775306,-0.26603078674950237,0.3259840146695975,0.12813551185253672,0
322,323,-0.018965028582228736,-0.32398489096051275,0.34491613852819414,0.11415333078765678,0
323,324,-0.06284513256911291,-0.39879171178356165,0.4088608425608305,0.46112235116470773,0
324,325,-0.025620522701533477,-0.33496581451616037,0.3711662953889636,0.1399547674152617,0
325,326,0.011665125419050286,-0.3686481955004042,0.38427836823147477,0.029881423902457304,0
326,327,0.019779650705702787,-0.2403886376386853,0.28660113936371334,0.3880720964577735,0
327,328,-5.320338000935898e-05,-0.11824115740826527,0.13904421034580083,-0.07506651728901767,0
328,329,0.00749273130685272,-0.2614983198432272,0.28018189824567297,-0.005428753611440871,0
329,330,-0.003633726293315488,-0.3598915309692218,0.3013616957083285,0.017977951749574627,0
330,331,-0.0242209930969744,-0.2925134033869919,0.3193981261925726,0.11352646379723563,0
331,332,-0.029203042318099642,-0.46272106375497885,0.37225703461434545,-0.3287167968606345,0
332,333,-0.0010301174147767864,-0.3731008833840424,0.3308885181856072,-0.1429328958349721,0
333,334,-0.02309718983910626,-0.4071644475490219,0.3505433885751058,-0.042309624469932895,0
334,335,0.020275246128474075,-0.3173960797765266,0.39274171713606404,0.9419329656577778,0
335,336,0.0038932462950005925,-0.43228630937058043,0.28698707804534074,-0.4323063292296219,0
336,337,-0.00011121773201638759,-0.3315970197178241,0.2746846485419889,-0.30868779901492654,0
337,338,0.0124941193072586,-0.18044121780260813,0.24177170816357754,0.5611678175637396,0
338,339,-0.00856229677948231,-0.24867292546096814,0.27819645628275946,0.03989101775119581,0
339,340,-0.023443823861326558,-0.2697184348020009,0.30054181969028315,0.024571316688141494,0
340,341,-0.02124996156208878,-0.33894457414722834,0.31048738107366436,-0.271286676391661,0
341,342,0.012913972208297424,-0.2421624045388548,0.31634160816935253,0.28221350064828193,0
342,343,-0.004989385471348125,-0.24229532800852088,0.2839212067306347,-0.22768704323127448,0
343,344,-0.001996668595210948,-0.33395168820733573,0.27724374614009994,-0.3520106588943339,0
344,345,0.0027766906714605456,-0.2610758625475652,0.29725116291037423,0.025855090858824304,0
345,346,-0.00880655922450862,-0.2382806818394884,0.25985447978292636,0.09943644262997568,0
346,347,-0.018050918189385708,-0.2654389460623837,0.297695394148223,-0.0023929422405483468,0
347,348,0.0024542094324821735,-0.31550590897483977,0.29001130619536686,-0.06262863508630413,0
348,349,0.011245513932780794,-0.21449161393639493,0.23291194429968032,0.21617690395264688,0
349,350,-0.033725516979967674,-0.331758366217803,0.3491074606590615,0.21076737045629138,0
350,351,-0.029199474047054214,-0.2931279977024793,0.34554811783992223,0.12110645457176283,0
351,352,-0.016735542676701517,-0.3054364642606435,0.2784320216774646,-0.10482492175326862,0
352,353,0.0018876814357679436,-0.3065052011883974,0.2926998874117601,-0.008189159573794437,0
353,354,-0.00427704870621915,-0.30627050382074794,0.2713657330859005,-0.40328997481870965,0
354,355,-0.0076480660164097575,-0.20840486807257824,0.23418977256601825,-0.08126237644856056,0
355,356,-0.01769857553447539,-0.3090231262649442,0.30762085069828177,0.19565979390201002,0
356,357,-0.015946767077877063,-0.2579184449072559,0.294417845936319,-0.1543172917823138,0
357,358,0.0008758088800876462,-0.22601982791708622,0.2766911453780152,0.02293707453803888,0
358,359,0.003402477176709508,-0.27164624400821646,0.19492754986531763,-0.15197405508875184,0
359,360,0.007185895899314254,-0.3170269815651908,0.34106219486899814,0.20044503926644808,0
360,361,-0.020310732530588786,-0.3233194295393554,0.3304086512679262,-0.005890438443732001,0
361,362,-0.024407134037209358,-0.2501593764332451,0.29225492707471123,0.056728676314898266,0
362,363,0.01621982801492618,-0.26416773651290015,0.2937420213386088,0.6058745002051217,0
363,364,0.00717840511184161,-0.17378755355206338,0.15959682752789028,0.09393028427581297,0
364,365,-0.005068454232383481,-0.26930700490186943,0.2565226992436131,-0.04604395079300596,0
365,366,0.003193991552606501,-0.32695512160189916,0.3069889223609176,0.05238217993783954,0
366,367,0.004525529242224408,-0.2951695002527087,0.2945147197862382,0.13493769038922768,0
367,368,-0.030973718435382134,-0.4290925674432639,0.3942721566998306,-0.13080687095136884,0
368,369,-0.04957627389925662,-0.4079590030762094,0.45006384133690924,0.42215839784291603,0
369,370,0.007518471486843609,-0.3776163529084392,0.3412035702663554,-0.005726245358078303,0
370,371,-0.01130918781655244,-0.367746412274485,0.3506903466732426,-0.0468088680114655,0
371,372,-0.02305985110340797,-0.3782482813721214,0.36026453539435765,0.07378882799929543,0
372,373,-0.029217726766924707,-0.37162285355568975,0.2894525002065222,-0.21423610289951375,0
373,374,-0.01735061113018699,-0.2651238649221823,0.29391778616673847,0.07566228078604297,0
374,375,0.00032622818026226244,-0.11348701976661314,0.12054581077515324,-0.11657513259387817,0
375,376,-0.013178416582685459,-0.3233247820096692,0.2944181949089097,0.08727368771796154,0
376,377,-0.03308918444725769,-0.3639474620617589,0.3404409705889394,0.13533818284992824,0
377,378,-0.00015320907661713762,-0.2846445555019397,0.29841025126973275,0.12978561862328147,0
378,379,-0.03272208935324619,-0.38408830306162256,0.31878976019882815,-0.011277946944558224,0
379,380,-0.015168092528528193,-0.27072642366182076,0.28356879459443857,0.07635230170434149,0
380,381,-0.021424741590867685,-0.35488355308549835,0.31941214292422015,-0.203396303570533,0
381,382,0.006737688851326234,-0.27489398064507164,0.23611577727268718,-0.11271943076920904,0
382,383,0.0022816782911286642,-0.29294500070696416,0.24167563834107147,0.025750571261780174,0
383,384,-0.02156250450482618,-0.35049675516973045,0.3236104517758708,-0.14846875617267746,0
384,385,-0.0022821673166075894,-0.22387711781271935,0.23476052309650902,-0.15330123155830713,0
385,386,-0.02486120919498888,-0.2991208856188937,0.33348887727186505,0.1965149701346561,0
386,387,-0.03420218591516417,-0.337085947545999,0.3108304675994856,0.14399504752506218,0
387,388,-0.027238771391881706,-0.33004063230774827,0.33954362278181127,0.1928977114429969,0
388,389,-0.0021006308995280467,-0.25679516286043413,0.254736878422022,-0.03234032713813632,0
389,390,-0.01483314609035776,-0.2644149109748423,0.2938721680186618,0.11017181432490705,0
390,391,-0.005854337270522455,-0.23101974979018614,0.23419106152040112,-0.33076310247397106,0
391,392,-0.017830484969664804,-0.26446984839355786,0.26017613083635505,-0.08156710471036104,0
392,393,0.0024649765077470118,-0.24932298082372673,0.295094784530027,0.20918333085891622,0
393,394,-0.03900205485618067,-0.39953999690537056,0.32386694317893194,-0.077230625376893,0
394,395,-0.01889095930660431,-0.3828051179492892,0.40504816446843334,0.1438333880636188,0
395,396,-0.017950499123340447,-0.3221366953924264,0.3282897406081292,-0.03059628819703712,0
396,397,0.0044527484507306,-0.399448042489166,0.4412763800013332,0.06259125045075148,0
397,398,0.009437677488653212,-0.23604742353614888,0.25696181426591724,0.39459871659492324,0
398,399,0.005253230098771902,-0.2971781392216048,0.2889653459019793,0.005652938796194156,0
399,400,0.0005399325107935636,-0.1618096647571064,0.14480165811341816,-0.14775336216410867,0
400,401,0.0014452328039364854,-0.3635805299957559,0.41263650912844996,0.2564692825709637,0
401,402,-0.0038741615443664626,-0.6250446083205703,0.5460912966819937,-0.2468889509402707,0
402,403,0.013125354971564437,-0.7259497242128485,0.6904830944691314,-0.1711188316345751,0
403,404,-0.010651819013629318,-0.6418849531704631,0.6460491083874799,-0.16053676716053777,0
404,405,0.006248165550251178,-0.5015125911180638,0.5576626099148978,0.04455140192421265,0
405,406,-0.005270805473688724,-0.27574630352281837,0.2859847449873123,0.17594503600263453,0
406,407,0.0012900022542045976,-0.26958985962221105,0.33760873317911505,0.24862777671697334,0
407,408,-0.014916171747282485,-0.8231337867966024,0.6166723647060556,-0.40487366565328203,0
408,409,0.07986404875624786,-0.9095692049867212,1.3947058180181209,1.0256423756115731,0
409,410,0.014302719797948433,-0.38748479000474906,0.4117509256343242,0.24375230787588117,0
410,411,0.01856494282850341,-0.520211175890749,0.6019006729873688,-0.09682965753147267,0
411,412,0.0034369724698982327,-0.91843290171217,0.7429369896985449,-0.338815744804193,0
412,413,0.11862634575998908,-1.0821923510718015,1.7163047779292202,0.9337990748131211,0
413,414,0.008660096764250929,-0.7096688921845242,0.8707385116730421,-0.015340575766897124,0
414,415,0.013812057032262704,-0.8969745257967319,0.9463954457638997,-0.07887285188967262,0
415,416,0.05999015890296478,-0.906570430148896,0.9595832971687175,-0.012252617771935781,0
416,417,0.05960746841216897,-1.0786652730622055,1.1792945985017822,0.1579212367363391,0
417,418,0.008629339760470166,-0.632796106706826,0.729722569611736,-0.051785724742534955,0
418,419,0.02100425140427603,-0.7195414078479361,0.7392432722489003,-0.04208969453930314,0
419,420,0.03165256583834497,-0.5110645000005742,0.5780939710660565,0.3005054425872073,0
420,421,0.0054181699333600815,-0.47500547586900044,0.5352393973373514,0.12088364065737246,0
421,422,-0.10832780204958348,-0.8983831126775284,0.6983117329333529,0.08036889673613808,0
422,423,-0.21502280940681864,-1.2686943562671809,0.9298520308007923,0.10190780402959139,0
423,424,0.03118797747779477,-0.8584675680878777,0.9256149939846866,-0.138054244926961,0
424,425,0.06359642070981376,-1.1130995656664147,1.0123454600496729,-0.16418640130660234,0
425,426,-0.01192801549179221,-1.251236166948374,1.1342029750359794,-0.1531113029206249,0
426,427,0.046984241859390326,-0.8586960314260912,0.9152146085771501,-0.025323016450327897,0
427,428,0.02115591573168155,-1.0495390765964578,0.8813864424179939,-0.3503861336645582,0
428,429,0.09745191281815037,-1.080373608443025,1.558417717059696,0.6571722956760336,0
429,430,-0.0037336553156559725,-0.6888152069297709,0.7117831630178194,0.12138087351824467,0
430,431,-0.00033461622275881886,-0.7566627634324297,0.709997383161501,-0.14765340632780435,0
431,432,0.06742319290041358,-0.9510997331687426,0.9390310385600374,-0.25616552276438187,0
432,433,-0.13617752782380874,-1.033912592921348,0.7787315575770295,0.09203415592248768,0
433,434,-0.001634832127701379,-0.4135131747311846,0.522683692714327,0.5237381551866275,0
434,435,0.019354056313468832,-0.5260418326340731,0.5099715137384635,-0.13768258305952927,0
435,436,0.014531376475573047,-0.5960315494565408,0.6188619101398962,-0.08034780701092457,0
436,437,-0.11468375119019587,-1.3047756439296658,1.5151494528357632,0.23219002541681769,0
437,438,-0.25616055057690407,-1.5070560943270856,1.133408194665103,0.22502683068055016,0
438,439,0.10277394726815743,-1.0164254950666585,0.9257580612231456,-0.28999229183923486,0
439,440,0.0906844806439121,-1.0256623019456135,1.0853083286141292,-0.16408193310889646,0
440,441,-0.050688614986308035,-1.010273138219827,0.8962463269281147,-0.12700263325248484,0
441,442,-0.22005205876320819,-1.418916346331296,1.4309528628285815,0.36412030022152686,0
442,443,-0.2000819957588228,-1.3969133762681394,1.1136562702256214,0.11935926760958936,0
443,444,0.0005414080475231129,-1.1523735279723248,1.101227290224478,-0.026564325209293665,0
444,445,0.014848297530356033,-0.6184635339879336,0.6376114250253488,0.03515326967227211,0
445,446,0.021892736304249618,-0.7622362925866306,0.6866083507941574,-0.21716366588453834,0
446,447,-0.007855436897728751,-0.3978186600693344,0.2945854224845771,-0.33763491627485087,0
447,448,0.059073519013265165,-0.49516205960692483,0.7811291689418091,0.9759207197648507,0
448,449,0.03926624198515066,-0.6221312116133894,0.8940864414165912,0.4235321059860847,0
449,450,0.006645691842690313,-0.35100072721175035,0.455896741219703,-0.0422771232131865,0
450,451,0.044869459534309604,-0.5027465144227283,0.5809748091517035,0.13299899734049825,0
451,452,0.034503275739612156,-0.5827098945083975,0.6377713439544132,0.17178533472434068,0
452,453,0.009875151012987653,-0.483156538372879,0.5220989578095043,-0.007606351032041884,0
453,454,0.003155870058794625,-0.5052321938145294,0.45994014200395117,-0.3638567296743269,0
454,455,0.006763466789784996,-0.5746044252250602,0.5128367993002669,-0.026842515257705955,0
455,456,0.003119616935928485,-0.363700152099493,0.3963716937976087,0.022121327109282905,0
456,457,0.03452910013008509,-0.624968269211384,0.7416551006774543,0.19843795719139667,0
457,458,0.006489390741900993,-1.0398895215554136,0.7817822903723501,-0.45662041672863407,0
458,459,0.14711815943181505,-1.269882682679192,2.063678374892019,0.7193238288964137,0
459,460,-0.07368388149034752,-1.5759131638759059,2.2451311938771967,0.6499775624762263,0
460,461,-0.30778079225104815,-1.8286586371435685,1.243351301261558,0.04067054905426183,0
461,462,-0.25329211718394823,-1.6439971832142564,1.8462893509583584,0.4353731843558556,0
462,463,-0.24799953683003337,-1.7610733571881707,1.3235501141377084,0.11968263792077355,0
463,464,-0.27202656160162025,-1.7345482328014359,1.0533304785505109,-0.009097688028653307,0
464,465,0.03287995122067617,-0.8529730040808909,0.9425776203664292,-0.16004864356716697,0
465,466,0.052635012951117936,-0.8612284386090863,0.8856630273086148,-0.08273043470892825,0
466,467,0.12122374163888265,-1.120679971620384,1.2568028589463331,0.030531763538277454,0
467,468,0.014430951968248675,-1.6433843256407552,1.1827233190364932,-0.5046957296693301,0
468,469,-0.04447900835479466,-1.1810687908821338,1.037177238174903,-0.20152601584202193,0
469,470,-0.2970593500051872,-1.383713259910007,0.962223813994046,0.21043900231595622,0
470,471,0.01130651551999307,-0.9074622708428866,0.9481658132137352,-0.08615722324739467,0
471,472,0.09631813911525579,-1.526772192839926,2.3301463487974132,0.4603850007296389,0
472,473,0.06932292671772579,-1.5414558308917865,2.181680276634235,0.20734463221693375,0
473,474,0.23308770130816744,-1.6670055460216977,2.7272254728438488,0.5466663288012872,0
474,475,0.06591963551943358,-1.1252903234423266,1.2459366241119143,-0.0135783867596678,0
475,476,0.03454523645273961,-0.69017206769953,0.7323242113240951,-0.13199605478361107,0
476,477,0.008581429419770838,-0.9203215385715748,1.0257201028745884,-0.11482311372677435,0
477,478,0.01691321636744764,-0.7318403050405328,0.7869306600870845,-0.11218854640086925,0
478,479,0.021137660134489065,-0.6604873376534344,0.6165631748598437,0.0771161033747851,0
479,480,-0.01607434506133006,-0.6936119937289535,0.6116132944746553,-0.2007090924232599,0
480,481,0.020220034121024518,-0.8277872019536464,0.8752299285845674,0.039334021314562054,0
481,482,0.018241451055738423,-0.7971748443586442,0.8745273572725147,-0.03201703668268009,0
482,483,0.006193825121970214,-0.9754440541046157,1.0466394067754115,0.02363224531686672,0
483,484,0.08478726521589743,-1.1066900847173593,1.123883869215427,-0.15702782765247786,0
484,485,0.03516957505571997,-1.132483895070377,1.1530878449075934,-0.15531369594290864,0
485,486,0.19788704353204514,-1.6210024817223738,2.686544765216599,0.3649680596742864,0
486,487,0.0771240359435082,-1.646626153208778,2.7008950535797114,0.5370210180988727,0
487,488,0.014068832877731127,-0.9124913602846199,1.0547656993182941,-0.10093881574054486,0
488,489,0.021509945560987027,-0.9010734969231007,0.9151790844829893,-0.14682895082084577,0
489,490,0.04344596238995951,-1.0281825496466472,0.9996227750971798,-0.14285968899059717,0
490,491,-0.006127300132169795,-0.9218372832080366,1.032630318584447,-0.02415239850827469,0
491,492,0.06535210296755663,-1.0470078211850635,1.1589161235399839,-0.056679670451210626,0
492,493,0.14484764836304606,-1.6179782062338086,1.5451979318238849,-0.28865365306031426,0
493,494,0.03223092833592892,-1.914947427440736,2.0792429722794594,-0.1221645901618931,0
494,495,0.12547654312399412,-1.9373036522666598,3.493069011701623,0.878958038676671,0
495,496,0.0021611390817460967,-1.3554926128944351,1.3627505299144516,-0.0793507801587794,0
496,497,-0.11373861546876057,-1.9639154835146426,1.6309029779691242,-0.3060417325638993,0
497,498,0.041935916317110467,-1.4288332891430995,1.35539873369224,-0.005817366601715016,0
498,499,-0.22861349921228094,-1.9250067183494832,1.566409907031634,0.06685481087535171,0
499,500,-0.5504670777878458,-2.728831182716858,1.752302251196532,0.1871720065026318,0
500,501,0.003005409175252735,-0.6642884094679066,0.6880975421311571,-0.09360361619367313,0
501,502,0.011135902952988873,-0.5322522760241969,0.6256240081115899,0.0990208891941407,0
502,503,0.01781830326512069,-0.6023118901197498,0.702012315527466,0.05063526568836451,0
503,504,-0.03102343935760001,-0.7242010927357116,0.7133713533326838,0.10784933728121328,0
504,505,-0.02519536184607658,-0.6073800701267066,0.7787441753547141,0.03599390877743087,0
505,506,-0.02199803807116418,-0.8342036366193915,0.787115217386231,-0.0510154565984292,0
506,507,-0.024924141551434586,-0.8842488327868121,0.8480453009884661,0.005070400449346292,0
507,508,-0.021702265380835042,-1.1158909761023543,0.8358219704228096,-0.06754289022971163,0
508,509,-0.00505440515343301,-0.4947536258517944,0.39429723477776113,-0.09892579648266356,0
509,510,-0.027926055317131614,-0.6354866169249198,0.6583721672847813,0.06600143829179815,0
510,511,-0.09373034008169852,-1.1327688894247556,0.9499296817409559,0.0648101157315396,0
511,512,-0.041788502953479106,-1.1203319389550028,0.9584125979369045,0.025696616881932144,0
512,513,0.008853336671242225,-0.8389031561977923,0.7239738807802263,-0.2945810218324794,0
513,514,0.00371321028544293,-0.2530008990290705,0.27369021838791185,0.06615204394640929,0
514,515,0.0028601943191041506,-0.511969025630254,0.6635315859549213,0.25962849718591285,0
515,516,0.01313461268543524,-0.7425369090886554,0.7449287844408683,0.004220501116328112,0
516,517,-0.05368802621922194,-1.0115765329946353,1.0884883033942323,0.12537275982081822,0
517,518,-0.0570761841624168,-0.9669548397265009,0.8845091853135054,0.09965390256203627,0
518,519,-0.04690931833049439,-1.2453676267649074,1.248611191557426,0.12704290394890183,0
519,520,-0.014421838808660409,-1.2573230391167884,1.29122545558762,0.03496565930186113,0
520,521,-0.04597426771751038,-1.1927352678012522,1.1721698784852872,-0.03822173183522746,0
521,522,-0.052001561706413374,-1.1829297494008681,1.2759146262625354,0.10242283796684473,0
522,523,-0.0625882209470567,-0.7929296836415727,0.8346064746646698,0.196967992312517,0
523,524,-0.04507327618524342,-0.6484074698265314,0.47397935856736545,-0.14018855853047366,0
524,525,0.01720874071158161,-0.666304710171362,0.7585415685484147,0.010478964219688911,0
525,526,-0.05377001560914801,-0.7040941178997098,0.6536267373341555,0.014788689423112853,0
526,527,0.02340844117549638,-0.7370990366970126,0.8438961712842437,0.08716502691303853,0
527,528,-0.06358403969756106,-1.05823147084909,0.9402991019643361,-0.00740695801288852,0
528,529,0.002454609462965489,-0.34747411020314545,0.35865458417602725,0.07140047390604444,0
529,530,-0.022190883688423136,-0.5638802725569849,0.5538645945097047,0.0009562995354498786,0
530,531,-0.034531778311724416,-0.8489385563516195,0.6488857149269014,-0.05678690298443477,0
531,532,-0.0668553906185537,-0.9599767878481869,0.8901394959660163,0.005278027092984249,0
532,533,0.009498097856231439,-0.35785162096175815,0.35929685367957326,-0.079557672013903,0
533,534,-0.07947752573888632,-1.395243156963516,0.9802584418815774,-0.2551334781955543,0
534,535,-0.04568087200403984,-1.1422464715875664,1.1643816310613646,0.060923312286977054,0
535,536,-0.038912035355362015,-1.1427413260161854,0.8397049847632101,-0.13070332043902777,0
536,537,-0.061568639802212034,-1.1745744468862998,1.185773423275113,0.14302772674570133,0
537,538,-0.06398606066624389,-1.2205471068453106,1.2138050902924231,0.07342126671305291,0
538,539,-0.009739853120374928,-0.6838976947573814,0.6768040551782777,-0.020050396643747772,0
539,540,-0.0008322585548585865,-0.13457743749785056,0.1923563533208154,0.23980377596030433,0
540,541,-0.04519729515991913,-0.7719496170685805,0.7150946991351311,-0.024301728529700542,0
541,542,0.017703984350148968,-0.48123684436781267,0.4901082550251724,-0.06247279747090163,0
542,543,-0.008604034449224226,-0.631503791042749,0.6307317961365739,-0.07028862435031041,0
543,544,-0.030057318323752868,-0.8427901244537959,0.694366682839292,-0.013995022920584018,0
544,545,-0.04549754581428491,-0.9230673819638973,0.9394332048046163,0.18084400395204422,0
545,546,-0.0695080839918831,-1.0389846953324147,1.0333335758937676,0.1298188283079335,0
546,547,-0.03701987841333666,-0.9943407961029674,1.0307134982336963,0.1593707839044834,0
547,548,-0.05540459479739609,-1.0723487430023086,1.0103163275930778,0.14476547756504685,0
548,549,-0.06418277088890133,-0.9751297990423344,0.6754385630471835,-0.18268953593124324,0
549,550,-0.012451500776990245,-0.9588540741586729,0.9701627666650796,0.10161084609379473,0
550,551,-0.05930668176229612,-0.9562340002171902,0.96699487687811,0.1171131632832842,0
551,552,-0.028479463786895035,-0.636200582251597,0.6501422570139437,-0.0063899933085734256,0
552,553,0.003603619742926417,-0.35447543926676134,0.3679442304479985,0.034528297984873335,0
553,554,0.009130715541697131,-0.3599042730237203,0.3216368871372013,-0.07633443695106275,0
554,555,0.009825994518637656,-0.4172467046592391,0.4221929667426806,-0.08564864061581069,0
555,556,-0.0429649788331845,-0.9372871171861361,0.8838919585024576,0.05825852025378688,0
556,557,-0.00782577763864658,-0.3892942246094688,0.3382821383842266,-0.033746304650877,0
557,558,0.009044086103504342,-0.5632629595403515,0.8053501159515417,0.2982777586778104,0
558,559,0.0010765376767074891,-0.2314324935193523,0.2409891114112086,-0.11274070876782767,0
559,560,-0.005187073343109183,-0.1749265526479558,0.20922780255107137,0.16503961454859464,0
560,561,0.00691122040244256,-0.42817581571694574,0.47176317872784135,0.10390047496934067,0
561,562,-0.047545958787600484,-0.9198024030340253,0.7569589992673655,-0.14119284055417355,0
562,563,-0.07753008657229517,-0.9420043072881292,0.863032745516163,0.12111444107880247,0
563,564,-0.0737831789418784,-0.9079570513115844,0.7169627155883926,-0.013192491467239475,0
564,565,-0.020308324903814304,-1.0638419907774077,1.0590036605092434,0.060319968478649434,0
565,566,-0.021566092427430305,-1.0120201981045538,1.0130578541300976,0.10814694651143307,0
566,567,-0.015967569086834863,-0.8136738297688824,0.8063837696072271,0.05100585770024016,0
567,568,-8.784133976669044e-05,-0.36982031754533806,0.3810002196086284,0.16283735675853558,0
568,569,-0.014787555088023636,-0.8509544469852877,0.7789702872789596,0.01914428465963815,0
569,570,-0.039102351879003336,-0.8279665581765683,0.8787215042721266,0.17371990112594213,0
570,571,-0.07715868468110054,-0.7881881492076037,0.7728719708828622,0.3174018922044743,0
571,572,-0.025311538281026624,-0.6339159260980813,0.5444094745177426,-0.17287972723749095,0
572,573,-0.0047412218097165676,-0.8016179924377536,0.6485649435444696,-0.12476770390314755,0
573,574,-0.03747964235668786,-1.1380506156255423,0.9635573704879101,-0.06690048185696464,0
574,575,0.03880834461954449,-0.8680500530449893,0.9925463944508881,0.0814573393565909,0
575,576,-0.017805952866764316,-1.1565117159264973,1.0773388052123283,0.13604730869424564,0
576,577,-0.016728542248579115,-0.5610374757051848,0.6253130886864356,0.15639641247888555,0
577,578,0.0025918093724575527,-0.22846066995168055,0.22161117506211409,-0.09688213696261398,0
578,579,0.036669395266545134,-0.6581875668742672,0.7854087776982096,0.08559283216002606,0
579,580,-0.15658694644126836,-1.7123610153038897,1.0716936964916535,-0.36359385796502813,0
580,581,-0.012607139877228243,-0.8931575061365669,0.8174070217455889,-0.0969914128224085,0
581,582,-0.05264163609160046,-1.1871993528403888,1.2317535734101661,0.10865417534673637,0
582,583,-0.040925816950843706,-1.1966398404778689,1.2093152634620263,0.18234332181527915,0
583,584,-0.12362661344752783,-1.845355434362934,1.2271528047801943,-0.07126907570720367,0
584,585,-0.022081341397060764,-1.2193359145475604,1.1946278101754526,0.00857285039627951,0
585,586,-0.021490385021449804,-1.217210181057848,1.217614269086527,0.028050971430332392,0
586,587,-0.046975756032100406,-1.2922657024341078,1.1762789849473474,0.14375729661371411,0
587,588,-0.012206926184001057,-1.2899835738049066,1.220929858783618,0.08362454628979804,0
588,589,-0.06670892815025421,-1.2005253120925823,1.2435416860118553,0.24430580540498978,0
589,590,-0.06625593603532241,-1.2016833473700177,1.1893555421820565,0.21927714264075357,0
590,591,-0.0536072073181891,-1.3704249291445694,1.254631592544413,0.1604561435043419,0
591,592,-0.004991651946080995,-1.0775069029495041,1.1206904784700686,0.11951329275281511,0
592,593,-0.00287283608255313,-0.5858413937120053,0.42226028500512647,-0.5088859407389118,0
593,594,-0.02422707718005918,-0.2927669967421053,0.2480821569166441,-0.222095749652526,0
594,595,0.0382616215366885,-0.3794749773174747,0.5008183806267282,0.1619725723065987,0
595,596,0.000755292087751859,-0.4976035888250244,0.5460767281506573,0.021760617800185532,0
596,597,0.016403883803555713,-0.3732136736972644,0.3563837312301552,-0.13003574086910802,0
597,598,0.012898254891224125,-0.44453591473717086,0.41498585635236707,-0.03876877873947393,0
598,599,-0.038640815203487146,-1.0121696263340891,0.8510670845199559,-0.07803970868943023,0
599,600,-0.06050623691529341,-1.148942006251799,0.9761122424765467,-0.0231996729808299,0
600,601,-0.7704102206873996,-28.930280134842857,24.98001201585003,-0.08350351118498013,0
601,602,-0.02353832305354142,-0.5280140704252463,0.5088328039100718,0.11908394252351934,0
602,603,0.020240094169776898,-0.42825531446345433,0.42729342619998967,-0.11231649765393863,0
603,604,-0.008903923086157584,-0.5574045371657077,0.5230112733511016,-0.12080563485378015,0
604,605,-0.011328788901376277,-0.734804448251565,0.6068854637450841,-0.39833753991086546,0
605,606,-0.06376585622758928,-0.7491472342685128,0.8191743901394739,0.1279337156927083,0
606,607,-0.05132726135477155,-0.5240449701422834,0.5623158916118031,0.16011389865366324,0
607,608,-0.07156238767521196,-0.5067390953532072,0.4455828390465967,0.20760594217317774,0
608,609,-0.010674465744539244,-0.43662054098850267,0.38322122910492884,-0.10591512693054664,0
609,610,0.01188196828769896,-0.4321017682793784,0.41775629650086793,0.0867194121936747,0
610,611,-0.024625698264221285,-0.3553795901512939,0.33673848513326043,0.1867914249698884,0
611,612,-0.008707694504746018,-0.2466132185455489,0.2769933920636862,-0.13371241214466512,0
612,613,-0.008526435355420183,-0.3126595299200182,0.2847742555261661,-0.39975229109323096,0
613,614,-0.004025230635540942,-0.40142096825607765,0.3591486261927972,-0.20952173856358453,0
614,615,-0.01669331976823394,-0.3544707300551788,0.35023341696978616,0.054471064510961203,0
615,616,-0.0007485920819717539,-0.3689986091957097,0.36921577527551386,0.08484331182560341,0
616,617,-0.003237065385290387,-0.3871127200969248,0.39066219898257837,0.021357840162624916,0
617,618,0.002691374118823704,-0.13882946993894602,0.1376930048163624,-0.2567498529248114,0
618,619,0.0002538745711807024,-0.22332711552494805,0.24862448447864582,0.027664087321596652,0
619,620,2.402424485167231e-06,-0.19428509077114228,0.2043356501972255,-0.02162197574289769,0
620,621,-0.010974438865915518,-0.24111952182582486,0.2760044475770375,-0.1746647830456083,0
621,622,-0.009595501990259271,-0.24451485327600314,0.2583870106948968,0.21854952759138346,0
622,623,-0.015417774056753972,-0.34495718167579814,0.29490245927624836,-0.28971666342083324,0
623,624,-0.01867179869002589,-0.2292690905954701,0.28533771578133416,0.11806765599192787,0
624,625,-0.010550884543093641,-0.29403914982135826,0.23259639131570975,-0.8878389846212996,0
625,626,-0.0028034660009931597,-0.24583475102584612,0.23057060640359628,-0.20909489638391576,0
626,627,-0.006310845328226571,-0.269370536200056,0.2584487970994724,0.0004739389945358374,0
627,628,0.0008853125042940403,-0.11813402475774891,0.12244731404961548,-0.11824522764909116,0
628,629,-0.004237094467972191,-0.1680101137903368,0.1874861390053688,-0.20328989381440568,0
629,630,0.003825484312528263,-0.1971416146917255,0.19597226205548735,-0.15804080069809934,0
630,631,-0.0035441282835360125,-0.23691929168932996,0.22066360783918604,-0.11840328791037259,0
631,632,-0.019224374738853686,-0.273077312768055,0.2591126268124482,-0.14175720105304448,0
632,633,-0.0149204057853212,-0.3424499495011668,0.2606162306891727,-0.2049759834320006,0
633,634,-0.01571551084553223,-0.24424394492250934,0.2702959575169638,-0.018062202344282498,0
634,635,-0.03485827768207847,-0.316363709614426,0.2883504582746233,-0.08258296989885006,0
635,636,-0.006688133272036884,-0.2105074015444213,0.2138757807290888,-0.2592324328364714,0
636,637,-0.010558404740229288,-0.18981778368139685,0.22142822518825828,0.13910107046605125,0
637,638,-0.03094241009043,-0.29233993214590925,0.2794596217072228,-0.018666570344420885,0
638,639,0.007400572258855875,-0.17334060406527307,0.14983365503040413,-0.03484516261196937,0
639,640,-0.021825855304162128,-0.28185273603576116,0.22024754165028448,-0.11002073380460799,0
640,641,-0.0035329656741979218,-0.18031349821167733,0.19957790456668895,-0.38548093433119257,0
641,642,-0.008292611783643619,-0.2316360803969084,0.24476653237509793,-0.019573791249763366,0
642,643,-0.01648393529637845,-0.2909774958860365,0.20530561318712176,-0.37258748823640286,0
643,644,-0.011558589504355824,-0.20986977964518228,0.21116853519802609,-0.28256938025472084,0
644,645,-0.0029440900697915774,-0.1798025270626059,0.19244477878346605,-0.3197229097726634,0
645,646,-0.016060309100272337,-0.23812906478476686,0.18673270579205364,-0.5141265199168175,0
646,647,-0.0051223292243391845,-0.19067574486532135,0.15497997283009307,-0.39877126589066164,0
647,648,-0.005881428113943609,-0.19727516912586698,0.2025166688316714,0.081752368271351,0
648,649,0.0029889513623553633,-0.13966479518243352,0.12315625385213552,-0.04491687261187125,0
649,650,0.0016375278503868568,-0.11208928865203355,0.11959018693181475,0.0722299912931527,0
650,651,-0.008146910693425687,-0.2191592027084714,0.2126071874211094,-0.07369568237834737,0
651,652,-0.01468141167728737,-0.246621547289668,0.21562074399462777,0.14804303980163136,0
652,653,-0.0032021136740099498,-0.1945063878214175,0.16804000963529708,-0.2739832808560429,0
653,654,-0.0056167632749867845,-0.17635181257752208,0.18600457500370282,-0.3784736676443703,0
654,655,-0.020902760219130203,-0.2784180921764061,0.21335642182360393,-0.13553214002713637,0
655,656,-0.0018984821431074197,-0.14278884669716418,0.12459705530665316,-0.43395007182021617,0
656,657,-0.011697456039084625,-0.17959814823927445,0.20050862805641756,0.06898053661605379,0
657,658,-0.0016022047201999623,-0.09328901589932102,0.10722581351377763,0.07890619196661322,0
658,659,-0.013579948414187838,-0.19255000677560902,0.21594080121447334,0.18240933969645295,0
659,660,0.005324315434689046,-0.19427432381820633,0.21442075246515707,0.21410497796262423,0
660,661,-0.016102006967604072,-0.19194743000884096,0.21163031535821483,0.15025379522864765,0
661,662,0.0005752026501299626,-0.06690886912276203,0.062182703374900394,0.05095558920615048,0
662,663,-0.008989725202511454,-0.2208975488382302,0.15920813131131895,-0.6474676312132694,0
663,664,-0.008726193944798007,-0.17098883462873557,0.18410880030729684,-0.18960603462930004,0
664,665,-0.004848948546274739,-0.1578159482282323,0.18097733300615798,-0.22699070988002532,0
665,666,0.0015744750304605827,-0.13891044190467494,0.13281973381302725,-0.20720462104940424,0
666,667,-0.0035469699254593035,-0.14329304602455856,0.13605044812107842,-0.1608018139390898,0
667,668,-0.014026728784113408,-0.18284458774548357,0.2101270443684511,0.10369468695335277,0
668,669,-0.0004283898284096409,-0.11417874162221739,0.1404702019842278,0.028469946536197506,0
669,670,-0.011912887599865135,-0.2725579425069454,0.24629329948107448,-0.2727076000570037,0
670,671,0.001631542989555991,-0.20555509809000466,0.19049174892947288,-0.06259173048719191,0
671,672,-0.007207385210023054,-0.19268886192612167,0.1691472349613077,-0.48425118665424893,0
672,673,-0.008117063803718209,-0.23347049876947212,0.20862780526779734,-0.6242125329922288,0
673,674,-0.012938560998111337,-0.17673869665965716,0.17109575528917803,0.006992412212948885,0
674,675,-0.003363751268396525,-0.15966374097848565,0.15430244155686412,-0.5219548539876315,0
675,676,-0.0025618610593310296,-0.14080781683523463,0.16496834187619275,-0.31061250444130684,0
676,677,-0.00793330924987251,-0.14731844580412615,0.13380475970279,-0.4532585559512883,0
677,678,-0.003366520190857416,-0.1118424887842677,0.13079852325588945,-0.23941995847060463,0
678,679,-0.002753833543328472,-0.2383616451831203,0.1916212041891388,-0.160028609438475,0
679,680,-0.005953108753711081,-0.15951161099581251,0.17772910954956983,-0.14385909921845458,0
680,681,-0.0008278844269338403,-0.20722677585486798,0.19476159083420186,-0.27147947067228734,0
681,682,-0.012975765173085215,-0.1882341117708737,0.2009123968652005,0.12712886068857532,0
682,683,0.00015253558115115376,-0.17350399967194835,0.1817117709598638,-0.009919108389421059,0
683,684,-0.0072360767270383585,-0.14157434017669013,0.1786492525099772,0.17767262203377,0
684,685,0.0029973545633045604,-0.20429868465356932,0.2317500253073646,0.4455471900346036,0
685,686,-0.014731730649607602,-0.17847216403758887,0.19164283812015465,0.04253424733953977,0
686,687,-0.0034019162552704776,-0.12362053919721064,0.13510667888420863,-0.3912387232324355,0
687,688,-0.0003580517726564589,-0.09204978909604272,0.08570287671811803,-0.16933750905495173,0
688,689,0.0002203473990597853,-0.19924846613214303,0.2018156440883115,0.2314632123046127,0
689,690,-0.009473987244562493,-0.18794745838166688,0.18754532161964618,0.029000167964901992,0
690,691,-0.010365163388398024,-0.21366054714251376,0.19907146714286267,0.027701482577361,0
691,692,-0.001360870725460741,-0.15633091727567583,0.1689154205309424,0.13800003728737528,0
692,693,-0.016503982598136346,-0.2349085903439389,0.17035557740675283,-0.2797093687669697,0
693,694,-0.004524131382711101,-0.16059483749808484,0.1752271664786127,-0.27205467923068843,0
694,695,-0.0034569242727207797,-0.17292435960208163,0.18046699712141692,0.060256198776172346,0
695,696,-0.014209111337451855,-0.20906759667667624,0.17643314440627636,-0.23488149757119217,0
696,697,-0.010496704417411143,-0.16630041181096564,0.1922453888645237,0.06809308694863553,0
697,698,-7.968191926863379e-05,-0.10284587562380933,0.10011574228994541,-0.24405013304157042,0
698,699,-0.006531847690105573,-0.14717430065384024,0.1485990437585517,-0.24502338425338896,0
699,700,-0.0009181716522575408,-0.12939709674954847,0.13205829431905125,-0.4597000268399109,0
700,701,-0.03562544421075369,-0.8977555492178253,0.7694932560757523,0.0392092572169325,0
701,702,0.004871630684000814,-0.6504352018696804,0.615454251064202,0.052884138545598106,0
702,703,-0.10307826454827662,-1.6504750471572032,1.7012563545281691,0.02324359291226397,0
703,704,-0.11347199430150896,-1.4484373177545824,1.2862917566870884,0.07826197924792266,0
704,705,0.0003620647463234335,-1.1595690686374638,1.8301106410358172,0.36092354491125744,0
705,706,-0.007581605971818765,-0.4950254015949603,0.4368677649076169,0.22231898598644523,0
706,707,-0.07437743341208818,-0.81700278488483,0.8808938213553243,0.24393265450589363,0
707,708,-0.040950095418685266,-0.6995250120278944,0.6346859097635995,-0.17358646027028013,0
708,709,0.019278831299140237,-0.2229840880101192,0.2638700870060253,0.17799098831376,0
709,710,0.01644512599689825,-0.3490792870175365,0.33170162513036605,0.049482973140677726,0
710,711,-0.0784001602432386,-1.008782598991331,1.0024264618605234,0.14037455108998806,0
711,712,-0.1507896824520746,-1.0939487440880498,1.0917509701506223,0.35940342308522166,0
712,713,-0.05060997621830828,-1.1591965099411214,1.3107436415613034,0.0690339648546474,0
713,714,0.0378788861606748,-0.6607628835025346,0.6749589475365698,-0.12289297953732363,0
714,715,-0.06577208323924331,-1.135855376340996,1.3039087818862563,0.23338422269889886,0
715,716,-0.03354063459209652,-1.2967747775738143,1.2531994142474514,-0.07175215502605238,0
716,717,-0.08948375301910388,-1.292289934038203,1.4127802557709106,0.15162581957377685,0
717,718,-0.14405256821706316,-1.59060788599743,1.5493985166879802,0.16130191708246144,0
718,719,-0.13086686844293013,-1.438996077832952,1.4779387079382578,0.17805477856640628,0
719,720,-0.1154837119596809,-1.39083964332168,1.4110978477053053,0.20777881105113594,0
720,721,-0.05943342521986953,-1.1462283456579505,0.9163349433347192,-0.038483189525249234,0
721,722,-0.2408952226680853,-1.61003722944309,1.5532168985325088,0.27404749653795163,0
722,723,-0.21447059994535408,-1.6872158840783096,1.5663484774577894,0.06583334587243105,0
723,724,0.018523930398869612,-0.8211704585151487,0.76015198138504,-0.10181999599044494,0
724,725,-0.04757944965832478,-0.9956730396053151,0.8607381982986866,-0.0471391552460195,0
725,726,0.006378063107123466,-0.8489638723416513,0.8744577813682028,-0.09302361217721204,0
726,727,0.03145715299531946,-0.9724636129138212,0.8494116842313617,-0.05107498247683033,0
727,728,0.039431735214642445,-0.9690251299876242,0.8722739625493362,0.0766274584084627,0
728,729,0.021318895553747736,-0.8897741885036107,0.8100742238360892,-0.14144736058637614,0
729,730,-0.204208416374292,-1.610714407583628,1.6219803717238672,0.1947306615721489,0
730,731,0.06369745297753537,-0.8174215663798683,0.9028621947595025,-0.05298027240390205,0
731,732,-0.013242356191534998,-0.8907765802529468,0.8149971530441025,0.10605645000848452,0
732,733,-0.11898962808384254,-1.565133389729239,1.7629930630713382,0.10574529647630333,0
733,734,-0.04672025016217655,-1.2450243911807828,0.9872995995629684,-0.14977480739732804,0
734,735,-0.16049168472503025,-1.563724454732542,1.514133820244521,0.20602857620979753,0
735,736,-0.20199662142773814,-1.3118014103957718,1.3215494387150617,0.35442026212145594,0
736,737,-0.16519212120421026,-1.4358801430213817,1.4386307392528883,0.26490733508622477,0
737,738,-0.17839017776910085,-1.912801023709279,1.5961806532457894,0.00986335053325438,0
738,739,-0.16851551464290604,-1.7779702935805681,1.4847148250643167,0.10287457590832963,0
739,740,-0.05012609032159281,-1.452078086589685,1.4712117711834403,-0.10557311041523318,0
740,741,-0.08354290455910962,-1.119504298382612,1.1187820340907282,0.18299873571754233,0
741,742,-0.13573003621772897,-1.605280968828876,1.251453696670235,0.13395914897466746,0
742,743,-0.1961239876304409,-1.3497163871149853,1.3429177722154102,0.33468235399958923,0
743,744,-0.14571454580866564,-1.5807158441270408,1.5740171741999331,0.15871359001051888,0
744,745,-0.26541969159036793,-2.455460616007064,1.4809255166153286,-0.5877832497883148,0
745,746,-0.07212695178567265,-1.7148796950167458,1.5179836078391173,-0.13031219046894096,0
746,747,-0.0314691357654461,-1.006826822621644,1.1096075739793472,0.2669818312939298,0
747,748,-0.12007650123015985,-1.302363789315336,1.2559397044895597,0.17426775425311047,0
748,749,-0.04136998930965397,-0.8599700680063447,0.6694264258602951,-0.29511370892013544,0
749,750,-0.08925994927921382,-1.175134820326274,1.1544791787328457,0.1589989592683682,0
750,751,-0.10076850207452304,-1.1761410531363963,0.9426078886608257,0.08278479196663031,0
751,752,0.014253861191095752,-0.3362919230073779,0.3224410041015511,0.05888577401891301,0
752,753,0.011909039221307705,-0.8765985057144812,1.1617982825221438,0.16975262673972263,0
753,754,-0.12993843042127926,-1.1587333255213448,1.1579844903611916,0.25409133238711296,0
754,755,-0.08687500295382002,-1.5338498410496118,1.3810328330052377,0.09504428384348176,0
755,756,-0.06179202596816281,-1.339307509803187,1.2594252675525435,0.11372695798754327,0
756,757,0.041338589594668025,-0.730483731856541,0.6688723009335613,-0.23618717543418669,0
757,758,-0.07260927751243128,-1.0313148722587182,0.7635825099110645,-0.19250168363035527,0
758,759,-0.16809809312070004,-1.7581509318999162,1.1536153725416303,-0.09718578163619512,0
759,760,-0.027336598031462888,-0.9738280348731033,0.6702788910566171,-0.2058762862606103,0
760,761,-0.025219800873984247,-0.7684464120909303,0.7643301435024097,0.022713198225892312,0
761,762,0.025560044623787106,-0.6635541187809282,0.6458775194689909,-0.0812069898453013,0
762,763,-0.05376496598859496,-1.0216486535121847,0.8057716252596273,-0.006303288070212479,0
763,764,0.032946150768754075,-0.786239078827131,1.065658176728535,0.2216710482566196,0
764,765,-0.06815904221219231,-0.9721208793782422,1.1668427892369788,0.17860806860095374,0
765,766,0.0060219753823239075,-1.2373955703241066,2.1434266487230795,0.6627500990339099,0
766,767,0.061303546123791665,-0.8773170069429539,1.1497424873288176,0.41837938806042124,0
767,768,0.005692331169330708,-0.7195184335812279,0.7209719411718221,0.027423644542868667,0
768,769,-0.22857501878667308,-1.3792618606387934,1.2491671687731674,0.3132279847762013,0
769,770,-0.08592754287658987,-1.15306021776329,1.2227325411929653,0.1875363751629528,0
770,771,-0.17759864034504555,-1.5934240811562688,1.4774220284753294,0.3248878654433606,0
771,772,-0.10205244415446472,-1.5649743000321876,1.6624130675864581,0.24725563980814294,0
772,773,0.056161447497286875,-0.998077551862292,1.0599628326638477,0.21467715986103703,0
773,774,-0.07959189204307103,-1.22553543624521,0.8941904352658046,-0.0875031123653671,0
774,775,-0.10820559277024806,-1.613808223619622,1.6069953727656396,0.1162921588608563,0
775,776,-0.07947423544180136,-1.4414776601087542,1.5405603424008092,0.10512341333268313,0
776,777,-0.0030982846113868034,-1.1422636583470367,0.8801024228186375,-0.12658936906558926,0
777,778,-0.16622859497096912,-1.5393887575432412,1.4549389904028267,0.1911870404925061,0
778,779,-0.028571802187683192,-0.8566343378310847,0.9158605672033073,0.10867936006162254,0
779,780,-0.012195824771501338,-0.8535750186570187,0.9122225201360364,0.2567729554754639,0
780,781,-0.015538091772198476,-0.6070698156649285,0.5193591226182319,-0.04016859623864086,0
781,782,-0.0470704437384406,-0.8404963856556446,0.8113269644474919,0.07110782429342116,0
782,783,-0.12619774787956936,-1.0133054764084601,0.8204309596014028,0.08825436027355028,0
783,784,0.026593977281945954,-0.6926261309982131,0.6184587747819505,-0.06589643543821345,0
784,785,0.02236685287271556,-0.30225192442771565,0.3098244828653749,0.11759834108573695,0
785,786,-0.1007516384866939,-1.0360814135697465,0.42383075862362585,-1.5663914941245622,0
786,787,-0.09957854858793119,-0.9411456397937894,0.522017303186832,-1.2098357413816918,0
787,788,0.00045643030134991076,-0.3017249669853912,0.3185591634612635,0.20608173841256344,0
788,789,-0.02351515007260338,-0.5992456243568867,0.6906810543978597,0.10722249428519684,0
789,790,-0.03267156591323462,-0.3656584062222852,0.36018286058475985,0.29885794532531956,0
790,791,-0.00012154535297256043,-0.37613381580793565,0.37381540859322626,0.4951677680375449,0
791,792,-0.12861350308443897,-0.9062863061400989,0.6956143574691661,0.0012332123295232412,0
792,793,-0.09759974835350388,-0.9598112906402587,0.7559877924107341,0.06773842011523865,0
793,794,0.0033912317235901654,-0.2040878101608856,0.24437688876527308,0.4842026636521411,0
794,795,-0.002313536911733563,-0.3374177097865062,0.28842976191080827,-0.25135076537991596,0
795,796,-0.0017255035795684295,-0.31616199994060723,0.2596265654555331,-0.4582834918072289,0
796,797,-0.03083342735111409,-0.4588982316027742,0.5774632806040207,0.21798444267717687,0
797,798,0.009578837429071788,-0.5378895368823151,0.6631324064765826,0.1486032931688311,0
798,799,-0.01362555503570582,-0.41993469963601776,0.4026565025739839,-0.035198866625730976,0
799,800,-0.01776891307100378,-0.43557480975717644,0.37396766776147994,-0.014454031114624987,0
800,801,-0.34317187196635485,-2.26772622524828,2.225505957832818,0.16528043945834814,0
801,802,-0.022604050839214945,-2.2865668359183298,2.587856405123305,0.09788662764013067,0
802,803,-0.2586723263829503,-2.7443115815423678,2.2081973594853856,0.0664988594520521,0
803,804,-0.13007579384577073,-2.6208332424744114,3.1502842181461537,0.27941931868495246,0
804,805,-0.2676591918830937,-2.320713313077473,2.663394183744005,0.2573688721933914,0
805,806,-0.3852891808850803,-3.9652296626307937,3.7922044748136505,-0.032180480606337394,0
806,807,0.281057733766577,-3.1845803672333313,5.483571419946053,1.0524310956518594,0
807,808,-0.7290940087141817,-3.2873155169859816,3.331016087709939,0.4923497665486219,0
808,809,-0.0409226312992585,-1.8881431210379338,1.3714291701659298,-0.2982375201693611,0
809,810,-0.3758079013683083,-1.6297188775319138,1.6306840999460148,0.5673470597343664,0
810,811,0.0002964043718277909,-1.3170509802674075,1.0268535239078167,-0.1987923200465844,0
811,812,-0.3222729199692755,-1.6557860381141118,1.5744175890128544,0.3900380568782684,0
812,813,-0.33742436270637244,-1.620636592740414,1.577505993619935,0.4207977195656625,0
813,814,-0.6078465491929684,-2.382641205954408,2.316225938096089,0.6549082003110601,0
814,815,-0.4374828748883914,-2.381669909008757,2.4270310608404753,0.4397085903463409,0
815,816,-0.454007950045771,-2.308737161904628,2.3089682711341815,0.4670293493332509,0
816,817,-0.6009882875019561,-2.343760005687937,2.3169976933695793,0.6475345140269146,0
817,818,-0.29523977243968064,-2.3358356484206215,1.2859375253085128,-0.7808380026185239,0
818,819,-0.18835258489845164,-1.7067256643253879,1.7238207356626676,0.36932329422852084,0
819,820,-0.5060421183828151,-3.310205446277921,3.2863854690526866,0.44077104998531247,0
820,821,-0.41933012726109054,-3.141018053227808,3.1287505137727383,0.2756138182933566,0
821,822,-0.2047744381181693,-2.298132013540756,2.0424544386805157,0.0819557217715116,0
822,823,-0.16680612384715696,-1.7423300618492013,1.7229209841570685,0.17688998161742508,0
823,824,-0.2823826062623946,-2.1123427883506225,2.153815952877805,0.28513861820874437,0
824,825,-0.5909226005620116,-3.7933809239847234,3.6691465864383366,0.37167446404830135,0
825,826,-0.5461898026378947,-3.933509621476357,3.9660509151381755,0.24954265813086837,0
826,827,-0.8950723891620282,-5.927964579435929,4.071372544683462,0.1224969710330262,0
827,828,0.12078355134692294,-3.8864553390324486,7.143689702028538,0.6639010280118403,0
828,829,-0.9524942816460648,-4.161839340571033,4.2975970056606485,0.532056284107832,0
829,830,-0.48693115898659545,-3.9181252297241986,6.227890161885343,0.5059512342712815,0
830,831,-0.8571505822613666,-3.955083578607632,4.040847383978467,0.43827777941747187,0
831,832,-0.2970399195689895,-2.996921022551735,4.726895923545243,0.6517181735488686,0
832,833,-0.859119236005439,-3.5277332503698267,3.358810013674872,0.5618035676934289,0
833,834,-0.30207430014231146,-3.5653243794618166,3.654910572265316,0.19882179191380253,0
834,835,-0.65330394052289,-3.1797414397153005,3.192099659604643,0.5108413981643962,0
835,836,-0.6307166564836317,-3.226201179854912,3.224312760626918,0.44265954797557666,0
836,837,-0.7638496885533792,-3.1399193798542644,3.0182007489863727,0.5923335537494859,0
837,838,-0.5617267944553205,-3.573939880544826,3.550755273375434,0.4357155664654292,0
838,839,-0.4241532669194837,-3.619417724541393,3.563533256403984,0.20624554680446044,0
839,840,-0.09953774559999551,-1.858004370795209,1.653233522059598,-0.040538275856679434,0
840,841,0.15293135305792818,-1.7371187595948085,1.5988783533506141,-0.1714793042560454,0
841,842,-0.8686949494110122,-6.629313429180968,3.844208781928449,-0.8529037390115257,0
842,843,-0.5783466070517312,-3.6242671237355584,3.70942429153476,0.3218479373192542,0
843,844,-0.5333472738225797,-3.9277989084618694,3.901110013082099,0.24519200581728862,0
844,845,-0.4839833749885476,-3.761862820243534,3.6711314164739,0.15560085585018435,0
845,846,-0.24336741174721346,-3.419471809062923,3.6310336976550253,0.11831930256802185,0
846,847,-0.35940128062022386,-2.8429524788170983,2.317196361070812,0.06074901981587303,0
847,848,-0.0786032407083655,-1.7836504516505673,2.0358937355762485,0.09254617635327769,0
848,849,-0.642005947092036,-3.499882980102009,3.506286818478519,0.3795854906809204,0
849,850,0.23339829328842243,-3.6412572403488843,6.971499945154807,1.1908853117317368,0
850,851,-0.1811631923296317,-2.739316039878974,3.1833240109055723,0.11355073408552484,0
851,852,-0.10911520013636251,-3.804262172763898,5.8016651998008895,0.44887631637295516,0
852,853,-0.7837447875933939,-3.8162737857487814,3.7512515571935587,0.47649572245411087,0
853,854,-0.8398881177886821,-3.4214920000550446,3.379648465022539,0.5918811794018691,0
854,855,-0.7116524760369893,-2.9707900568769663,2.9393354277325647,0.5277714961450515,0
855,856,-0.07289038318315087,-1.6343920930407103,1.5174813804369651,0.016776694147458908,0
856,857,-0.20370496993048595,-1.3662745124154454,1.5540316875882207,0.185101071566473,0
857,858,-0.004873698848521427,-1.0489097722751333,1.0406355812589196,0.04171866192102653,0
858,859,-0.02050049982415471,-1.6004280716477641,2.671264121894529,0.8258544607232262,0
859,860,-0.33712178206301496,-1.9959128271324995,2.001948249626205,0.3216821639852688,0
860,861,-0.48541236618584005,-2.070499375110417,2.139168216062328,0.4357096104064694,0
861,862,0.004517805276450608,-1.436498353555542,1.363057669101564,0.11275096021989837,0
862,863,-0.6099752131149659,-3.209873197623351,3.2561150550107616,0.46860601368758853,0
863,864,-0.22189509277879935,-2.984341733602813,3.0030027316824084,-0.12136614638322783,0
864,865,0.26184016992693365,-2.659765589458904,5.734893739577915,1.3074519458764358,0
865,866,-0.3311858003690203,-2.3826698715505676,1.969401982835767,0.10568002689650503,0
866,867,-0.31042964364706976,-3.4464561603635433,3.0844565566790703,0.019428771686992422,0
867,868,0.07345441711832465,-1.796805220047388,1.7382838235596945,-0.18194903121628242,0
868,869,-0.4010174136004408,-2.7868972710562945,2.895425222422167,0.18161126597981375,0
869,870,-0.2191981911070763,-2.4462115325190465,2.0715472814580136,-0.06482892383012495,0
870,871,-0.35273351238104417,-2.2795593414294886,1.8365798675910594,0.13452967020661774,0
871,872,-0.25748666155347033,-2.199182366199376,2.3615612993779065,0.1615657901353692,0
872,873,-0.1013856897119632,-2.565966597034543,3.14607761478235,0.6036293939451154,0
873,874,-0.07815900034443211,-1.4674540786014711,1.5002029779026398,0.18068230483477168,0
874,875,-0.28538318845121363,-1.9846316240627542,2.236449559074663,0.2837360565457654,0
875,876,-0.08019051789915597,-2.289931160716053,2.185941976525818,-0.12330822245288546,0
876,877,-0.30515077022166703,-1.9635885508075113,1.668331560705683,0.1319319702138093,0
877,878,0.11023225356663476,-1.411549762790937,1.4803437249778684,-0.07127065575756716,0
878,879,-0.04093667105030711,-1.6091734569670568,1.5180316147625685,-0.165096502372258,0
879,880,0.000639571191485,-1.5959055756902027,1.5003371312079552,-0.17338790399219275,0
880,881,-0.19193113229764505,-1.9986822788938985,1.633840276871491,-0.07555890433979563,0
881,882,-0.23525687793286418,-2.245707229350354,2.3038641813954728,0.18559158925196062,0
882,883,-0.23439392622018973,-1.986280629930624,1.6301653014953406,0.031705826290707145,0
883,884,-0.3220676846457318,-1.8850174515613973,1.505669455723464,0.1529722190833142,0
884,885,-0.31784723276509663,-1.9252684312536892,1.919417021303532,0.21319588242979443,0
885,886,-0.1928928536505974,-1.9277502348209083,1.9995733272222393,0.15966778130579973,0
886,887,-0.35226106697412535,-1.8642347803497037,1.6450199371047138,0.3265140420705185,0
887,888,-0.29181699527424954,-1.7936849061222713,1.4529478385863055,0.13679901845313458,0
888,889,-0.20784263863587582,-1.659347200401656,1.527038012448814,0.16424065096250656,0
889,890,-0.32185634189630613,-2.0850260028316066,1.6580783574151847,0.057010602718310155,0
890,891,-0.20272638421317732,-1.8141527751573863,1.4884643415834526,-0.029695668783453994,0
891,892,-0.04546866324458939,-1.3043993896672386,1.438897603743258,0.12156408113982009,0
892,893,-0.21836708631228605,-1.5945593360885613,1.412802639036153,0.09972954779137674,0
893,894,-0.025118947597521327,-1.3491827536668641,1.315022859956922,-0.05059401534235233,0
894,895,0.04088023206727013,-1.3722887030762345,1.2937153787082702,-0.10100027525647531,0
895,896,-0.012898526973306554,-1.491447846901495,1.384310664181406,-0.1318366510674117,0
896,897,-0.014072241827523946,-1.4688278067785299,1.4669189509568206,-0.009637265265366821,0
897,898,-0.1332407116041425,-1.5130001474186265,1.657130329534697,0.25653875293650613,0
898,899,-0.0005002913506846387,-1.325377005833461,1.2488654592303843,-0.12915038819239977,0
899,900,-0.21756984903071053,-1.648753685411454,1.7314796463578048,0.24986110864667221,0
900,901,-0.06434334749043374,-1.7343528397902235,1.5520661996686818,0.009565875738813687,0
901,902,-0.1371135905109171,-1.5320367313800558,1.5892160796855603,0.1948664628169963,0
902,903,-0.0884440535157886,-1.4304551048909349,1.5363502051755633,0.12028646474419395,0
903,904,-0.10757056838179084,-1.7546693696266225,1.463475856179605,0.14215326553316351,0
904,905,-0.2206057975397797,-2.059699160921051,1.8458624442557698,0.07199719965441306,0
905,906,-0.1174354611963262,-1.5049498455591026,1.6053131046488103,0.15060909626739133,0
906,907,-0.36732713410405254,-3.257237499327119,1.7649341715640336,-0.8129887938290757,0
907,908,-0.08045755073482336,-1.812408213103514,1.3129435623711387,-0.03455282239696142,0
908,909,-0.08918394943081513,-1.3626483152186084,1.1132827171287347,-0.12104804015968862,0
909,910,-0.047774714317171806,-1.1747447165280303,0.9803250712055653,0.016433304151922658,0
910,911,-0.18366466108461776,-1.613186962213175,1.3135711433868211,-0.01585558814160653,0
911,912,-0.05997088510833559,-1.264500068415721,1.4614372299168326,0.1858272163738088,0
912,913,-0.15410537926910275,-1.5503939744272248,1.4326839873073922,0.1751410653453927,0
913,914,-0.12818223873745707,-1.4802606652934656,1.6999295373447394,0.22025292072057429,0
914,915,-0.1070927399316085,-1.4509938840559706,1.481615529086659,0.1162666894435765,0
915,916,-0.05188597008502501,-1.3808235844943235,1.5143153303218666,0.1322536886759627,0
916,917,-0.053611228471334336,-1.2969661809460709,1.443136710686296,0.18174829357648328,0
917,918,-0.06785689684098874,-1.2985712642766172,1.3842416918899763,0.24997083269751177,0
918,919,-0.11129551867156011,-1.4958375576402991,1.5089795887542001,0.17076263435945876,0
919,920,-0.0340998700153275,-1.3437101168653602,1.2878214208506806,-0.04256144739960728,0
920,921,-0.20751915448926053,-2.1501964900081263,1.6516226267972542,-0.10598859213638717,0
921,922,-0.056376334391537004,-1.8044389736818562,1.8367352547165572,0.1370279616756984,0
922,923,-0.1296205741972236,-1.6717423222977994,1.5700899678750642,0.1129007190772121,0
923,924,-0.11565275713070143,-1.5808586553164203,1.6643152862337893,0.09557464169724643,0
924,925,-0.24113929168664502,-2.227956629724445,1.8177293551800817,-0.05520772279515616,0
925,926,-0.06193090271032642,-1.761639054662942,1.819429090821013,0.14272048725153624,0
926,927,-0.29639911584456763,-2.4775418843531978,1.996225546506163,-0.09857613953543878,0
927,928,-0.09227289395083915,-1.4790129347587495,1.422055479983686,0.11625003313245233,0
928,929,-0.059491073034397095,-1.2052239714265371,1.2546057028551103,0.10158656614589823,0
929,930,-0.09682365909896506,-1.7400762578817026,1.448719356207902,0.027273983756637504,0
930,931,-0.13564349301524967,-1.7503522482978209,1.4119884270614989,-0.11953152564757447,0
931,932,-0.18029240664316748,-1.724064543478843,1.710806264033321,0.12274864828325527,0
932,933,-0.09351494860033677,-1.4704059831497918,1.4639471872742011,0.03886434465063605,0
933,934,-0.09713953577900974,-1.6234523114445327,1.607384361473934,0.10971390179585334,0
934,935,-0.2310679715590047,-2.145790951031897,1.6807065200083078,0.022323735972489777,0
935,936,-0.24658230549363913,-2.163949063448573,1.9519524001146977,0.1231414889623448,0
936,937,-0.12132410642175069,-1.6923383544070691,1.646577821330022,0.059913549683818436,0
937,938,-0.20938036972171203,-2.2764281421583377,1.83290073066729,-0.015188221113685264,0
938,939,-0.09868610948151263,-1.8845668016961798,1.7285674845690906,0.18028841429767278,0
939,940,-0.05885210522215172,-1.2511130651880777,1.385571849484029,0.07450081893136827,0
940,941,-0.12321005760310237,-2.058959897211072,1.5907253248815798,0.06120936324244073,0
941,942,-0.214006266445401,-2.1407022935189017,1.8280218512080282,0.007599039060346216,0
942,943,-0.08966226920598704,-1.6507213741097526,1.6896448360789675,0.11577523666504322,0
943,944,-0.07881322730210216,-1.3566095037659542,1.330113388251807,0.23116193302734278,0
944,945,-0.20051609315951965,-2.0577285145971653,1.713843276649368,0.06564347936565204,0
945,946,-0.08064460554041554,-1.6765007118613076,1.7890474702678167,0.14960641335495958,0
946,947,-0.12575208135535912,-1.641671687841871,1.6248307255094558,0.100928713640541,0
947,948,-0.2091076036981981,-2.1102919442765558,1.7199802067038776,0.03116650688065164,0
948,949,-0.07644078711322844,-1.7563314647718937,1.9408278582068574,0.15964847763166476,0
949,950,-0.07177368302835542,-1.3855865984934477,1.4747779337223919,0.11033300322489781,0
950,951,-0.11619585799883762,-2.109308075084325,1.7157677225871502,0.092376456809813,0
951,952,-0.1913654313267651,-2.140087722439576,1.9229974335518996,0.04685072892819904,0
952,953,-0.15474473142064693,-1.7307411688676004,1.8772764663937154,0.22319964081949817,0
953,954,-0.09405951918745632,-1.4345375795222697,1.610582925888379,0.22192690380012786,0
954,955,-0.0892902089290903,-1.8411525046420691,1.718986706841025,0.15374316412948946,0
955,956,-0.15107415083658304,-2.2103048714830527,1.7686271430516531,-0.03316327613116166,0
956,957,-0.21597293381586916,-2.2675554969302283,1.9705601761816052,0.028007116364501525,0
957,958,-0.13465036512334397,-1.6817551310147587,1.5921046957305158,0.13396947335869122,0
958,959,-0.12244524101617527,-1.7125548221069564,1.7281902351160077,0.14623667811565466,0
959,960,-0.20086699238515485,-2.3216644384011316,1.8465004598478405,-0.03702046845982125,0
960,961,-0.14284997691944742,-1.7814808731407266,1.9005089482180293,0.22117356963479834,0
961,962,-0.11982470655999182,-1.6608088330649233,1.6640855115320043,0.0970745362792605,0
962,963,-0.17618293601129587,-2.321458571774766,1.8007406233680854,-0.03882262382500797,0
963,964,0.018011025410581052,-1.4283982178421366,1.5269829734048992,0.0700841588776631,0
964,965,-0.038527761893867044,-1.2291550391548733,1.3571212068663465,0.13833996670463092,0
965,966,-0.08133882483559353,-1.2508910764957837,1.1928731920651332,0.08554843829498777,0
966,967,-0.05748861079742245,-1.320850966298692,1.3586858533943809,0.08345089608105784,0
967,968,-0.10202725519062494,-1.8207764134558269,1.4780385016607807,-0.051573837759164985,0
968,969,-0.15480928660276824,-1.9466960823632202,1.7355575331154114,0.0701482660858926,0
969,970,-0.07763327634041094,-1.5378930168427645,1.4649642998666743,0.06241242371632809,0
970,971,-0.12481162621501712,-1.982795416728534,1.5420442454698482,0.0848691932519235,0
971,972,-0.1847353836604609,-1.9343621591967017,1.6800553341513618,0.11137006287823767,0
972,973,-0.10600744461490737,-1.5635534887468103,1.4612296969652054,0.0441042052170495,0
973,974,-0.16121898894292577,-2.035287395528388,1.5782483756006305,-0.009604426616496011,0
974,975,-0.14559631308785667,-1.6773951507498936,1.5502187940651133,0.19199335225291433,0
975,976,-0.08566554280460925,-1.5344656165771862,1.5103828198043558,0.06872225563892115,0
976,977,-0.13250211694421815,-2.0389668372837217,1.7472396971124744,-0.022191748173384804,0
977,978,-0.10579474601929208,-1.5984368655291656,1.7586119104005056,0.2134024535711086,0
978,979,-0.06973649827259766,-1.5385167273472429,1.5039788901790225,0.057844829571581304,0
979,980,-0.060830602337385596,-2.0254645070528765,1.5543653832774573,-0.029197673298430718,0
980,981,-0.18878389287349392,-1.9820617285416742,1.630914737835957,-0.11112411717904012,0
981,982,-0.12360979466066861,-1.996429302078309,1.6451726589946625,-0.01985370344336341,0
982,983,-0.04203832552281065,-1.5293025915620602,1.693884611558207,0.1484180665823001,0
983,984,-0.0409078530967056,-1.450310940227121,1.6842211366317268,0.16041720093936207,0
984,985,-0.0759117146855718,-1.4767365114805115,1.4034865946035804,0.10621314850583274,0
985,986,-0.060998930713715344,-1.329460066049573,1.3463291571004106,0.11091314113597577,0
986,987,-0.05759666022205623,-1.6468052575411873,1.351454741202236,0.0876792883824497,0
987,988,-0.1581900264937705,-1.8249215429358001,1.4335306174055022,-0.00081052675074753,0
988,989,-0.12211160552300283,-1.8075955352678723,1.5273427126583614,0.01211713086136744,0
989,990,0.005141464977881674,-1.0259784060097594,1.043330149634883,-0.0800198388413501,0
990,991,-0.14393896184538366,-1.622875083598522,1.361866437267796,-0.004148111128407947,0
991,992,-0.03787010072288297,-1.3909470351905873,1.2888013005184424,0.11211398164322049,0
992,993,0.00014463269239629872,-1.075387128067913,1.2041406250774558,0.005929416927501799,0
993,994,-0.09361529639304467,-1.1802971121588839,1.130816628767176,0.11076181004462068,0
994,995,-0.06301846834799164,-1.2048985818626243,1.20288534872931,0.042920394723906304,0
995,996,-0.14706658055237778,-1.598894645269242,1.3580847366597366,-0.032251750017973896,0
996,997,-0.05241818683427241,-1.386719874383458,1.4833351803419637,0.15463486700268314,0
997,998,-0.05906169664746127,-1.3490728867834312,1.264679395603215,0.05609527349217784,0
998,999,-0.07992129957438367,-1.7357191527703115,1.3370664886973276,-0.05701896015298592,0
999,1000,-0.07088526753585137,-1.6791822126134508,1.2746905341989425,-0.11650068780716956,0
1000,1001,-0.08123819967150457,-2.258544174717442,2.606268263800633,0.16951061143761986,0
1001,1002,-0.1721803609089124,-2.1346130183480154,1.945613383142728,0.11162553914547843,0
1002,1003,-0.07745801526671726,-1.901664468452086,1.7482727725456502,0.019752354260514304,0
1003,1004,-0.06519111121425826,-2.3578612047900815,2.3530292675929596,0.009491847776341414,0
1004,1005,-0.13787153846190334,-2.371191619676435,2.0550946742968175,0.039447752773141304,0
1005,1006,-0.2481783442152707,-2.700984294527562,2.533593120258722,-0.02250902771224695,0
1006,1007,-0.10783305559003022,-1.8500772505458802,1.5107250921901532,0.08737044246040626,0
1007,1008,-0.09595385351604574,-1.3381314427233157,1.319589516975853,0.06960218288543366,0
1008,1009,-0.21314372183309152,-1.6630952184834236,1.4900993610212994,0.18225784117297822,0
1009,1010,0.010703541966105607,-1.7247523582092597,1.534898093879237,0.005746046911884972,0
1010,1011,-0.0193657247461232,-2.227117545053569,2.1846490255631736,-0.00470056076064408,0
1011,1012,-0.12850428152026627,-1.676586187639403,1.8035443199226275,0.2660821140727791,0
1012,1013,-0.03438200607473863,-1.5635836786853163,1.5287519486351195,-0.05838894065243655,0
1013,1014,-0.052456145693714096,-1.7132969945288097,1.6447068993193166,-0.11028287615149299,0
1014,1015,-0.07764839587619113,-1.7417062853177552,1.5046132262055916,-0.13932367458311254,0
1015,1016,-0.027141960035154646,-1.2879615383236898,1.3132404826267357,-0.006261350191652238,0
1016,1017,-0.08658836300545769,-1.436431469491376,1.3937384455933621,-0.00451583390533164,0
1017,1018,-0.11873397375477827,-2.124831121589436,1.5010346074397867,-0.4099794951230836,0
1018,1019,0.047047369257341785,-2.0799598190141437,2.6046414548694266,0.5425150518536016,0
1019,1020,0.05174170819160976,-1.8989610720419943,1.7466662288895167,-0.12695742117298395,0
1020,1021,-0.23277189733937295,-2.335600934979018,1.9456233348660694,-0.016936973522875598,0
1021,1022,-0.014748174174614844,-2.094404468447708,1.5207097435674717,-0.3102842754296051,0
1022,1023,-0.02971977358862522,-1.8214057611886068,1.6385732844677554,-0.021170484355821313,0
1023,1024,0.0694447910183447,-1.9616497172008382,2.3166605109338496,0.2413887957849336,0
1024,1025,-0.08093796353572212,-1.7298084171923525,1.7244471382931956,0.10829175631125877,0
1025,1026,0.0999891952014097,-1.9075073680630683,1.6968249367049884,-0.19627013495191992,0
1026,1027,0.09669983668576909,-1.7729597104435268,1.6494747457742926,-0.1249291188282594,0
1027,1028,0.0033890084788340546,-1.6826200346938287,1.5851513541043032,0.013231730058252561,0
1028,1029,0.0965342828105848,-1.9103691378696361,1.7711386407449907,-0.05463934951832092,0
1029,1030,-0.16252421847566748,-2.187370165083311,1.9330342805211012,-0.06190623285953095,0
1030,1031,0.010726146289032247,-1.7069751986482828,1.5885066757652058,-0.15031307229306085,0
1031,1032,-0.03816051792058966,-1.3075446564657407,1.4161263764238106,-0.06707322592473684,0
1032,1033,-0.08024486776674875,-1.5144281650827316,1.533710186722034,0.04877144735104789,0
1033,1034,-0.08558286644751535,-1.6714756617803965,1.6094956956443003,-0.003121341266608616,0
1034,1035,0.008099156338371508,-1.8974397661370483,1.4541274765054288,-0.14487118447875644,0
1035,1036,-0.06646226015350076,-1.9135230510910228,1.3242471561611568,-0.26256566901264794,0
1036,1037,0.007226465792914245,-1.1850542686449197,1.1827056162671004,-0.06960814908720464,0
1037,1038,-0.07857454458975849,-1.2815847253150303,1.2716183068162077,-0.004311720008172715,0
1038,1039,0.013088404111859344,-1.3308098840095317,1.2513823701167528,-0.20933650797189823,0
1039,1040,-0.01400379076124244,-1.5189984824971616,1.3693430126378154,0.06570670569130259,0
1040,1041,-0.01754532458878136,-1.4296059977945574,1.401457042191575,0.015330786277474537,0
1041,1042,-0.03126217466039927,-1.3709057291731164,1.3733011030026747,0.11473823970767016,0
1042,1043,-0.018503516474653193,-1.171160491242106,1.2791688656222613,0.10818028524591392,0
1043,1044,0.001737051649957642,-1.296655892907684,1.1838400125751334,-0.09455137010288407,0
1044,1045,0.004401742067491751,-1.3104804968794916,1.357998637661058,-0.07738655101096466,0
1045,1046,-0.08691891920786556,-1.5894102998660835,1.7404292543981037,0.056681369884175596,0
1046,1047,-0.04738684542201466,-2.2003569664492746,1.958036989318021,-0.010001493266638383,0
1047,1048,-0.04758322763185116,-1.7558769852900937,1.7920593667661753,-0.024210579706134737,0
1048,1049,-0.04155421540045706,-1.5416340374292306,1.700443726726343,0.04165877818332124,0
1049,1050,-0.07520916018353996,-1.4762032933070126,1.4729711889568466,0.030050579098327344,0
1050,1051,0.03922503941387368,-1.5273473827158655,1.458614710161524,-0.08382890008712804,0
1051,1052,0.006912100656157434,-1.8293116893569206,1.681821460507142,-0.0377600567123022,0
1052,1053,0.016227756246147283,-1.6475109989143961,1.6394297811353085,-0.1695223619075585,0
1053,1054,-0.1709776241756781,-2.424019122712637,2.0683708137176113,-0.2818834727141435,0
1054,1055,-0.034132905289916894,-1.4307183642687662,1.5745742389360484,-0.20607707236892914,0
1055,1056,-0.023026033107429265,-2.1386494300017165,1.9495315121557617,0.09722561696919722,0
1056,1057,-0.09161218990614761,-1.7983893956851054,1.6388933094174587,-0.08057418105692603,0
1057,1058,0.017420870345132455,-1.6970968350683378,1.682624365959903,-0.10786225077014856,0
1058,1059,-0.010957182693264558,-1.9467528496325912,1.851474630043621,-0.04723052360312227,0
1059,1060,-0.02547127440457522,-2.175621095980679,1.9684981005618052,0.0842193430212244,0
1060,1061,-0.021252668804145437,-1.8574592173084121,1.9927437582082537,0.08161752800116302,0
1061,1062,-0.14671154074558937,-2.3473339031742473,2.1832856029469125,-0.2057295111762523,0
1062,1063,-0.0599751869618689,-1.4999121710013097,1.5693288261830012,0.08844909816289213,0
1063,1064,-0.02279968213466962,-1.7112806474958622,1.527308055506849,0.08372453007226936,0
1064,1065,-0.1271251928319089,-1.6951722477195985,1.452190165221169,0.07329373498574683,0
1065,1066,-0.10245272146434022,-1.5060473532226983,1.4572428255615364,0.15378444561805876,0
1066,1067,-0.1863178888129723,-1.6993197842663306,1.5096526920787392,0.18936058349614565,0
1067,1068,0.07661066696220636,-1.6569890852874194,1.9686159879130243,0.28209972967185276,0
1068,1069,-0.029513270664869997,-1.8300952202574392,1.811197585031505,-0.10158902789093374,0
1069,1070,-0.04837762889759344,-1.792542496815524,1.7425966211402133,-0.03307337626580739,0
1070,1071,0.02816937388939279,-2.162679641268451,1.9712816339852326,-0.17586459488839665,0
1071,1072,-0.05006600638923647,-1.8593828117686082,1.7290351915379185,-0.04740482360872078,0
1072,1073,-0.21182830078108417,-2.3666626339552677,1.8459262164822179,0.0705589008345903,0
1073,1074,0.05993359234212587,-1.441210394918297,1.5939822085596296,0.022130293083507824,0
1074,1075,0.026884658001884897,-1.3451387223798723,1.27087638518816,-0.08090066676252279,0
1075,1076,-0.2551459905347741,-1.938038389309737,2.0240532849702864,0.36641464967310944,0
1076,1077,-0.1294435188724126,-2.018449227029806,1.735527154289966,0.09536540074022087,0
1077,1078,-0.04690732628152061,-1.750857256816194,1.5979644939377842,0.08779297033978409,0
1078,1079,-0.14944134318734756,-1.6956522295587615,1.475551063107308,0.0006528095769091926,0
1079,1080,-0.06274486116842802,-1.6038686250383059,1.5019303605649192,0.23868189069736384,0
1080,1081,-0.03474632095640185,-1.1517753671203943,1.1835221619312,0.0051432213514929275,0
1081,1082,-0.1625347468198057,-1.2886164092938186,1.4603923700111512,0.3557118056774913,0
1082,1083,-0.06534186953700398,-1.3083201763276526,1.2784488810962926,0.03865927711687483,0
1083,1084,-0.018451680860753005,-1.4828069817699665,1.4514409519828226,-0.03714036541799041,0
1084,1085,-0.03514699090031447,-1.9012274521440875,1.7485056215800574,-0.0564670724383732,0
1085,1086,-0.309491626219578,-2.135141349740885,1.75780812993235,0.10538891603849114,0
1086,1087,0.07434369108770066,-1.7996450994630862,2.1324566639217464,0.23520580799999802,0
1087,1088,0.012727615777047521,-1.4849927997656538,1.5130959222144522,-0.16764026552916902,0
1088,1089,0.05692553374859493,-1.8258553038860357,1.6845336028147753,-0.12894899445880137,0
1089,1090,-0.023846393227031054,-1.817932802308753,1.7026789560759805,-0.03454861992996896,0
1090,1091,-0.04982647209069938,-1.4935953765664622,1.4242989623287494,-0.01721931654803938,0
1091,1092,-0.009297247784921817,-1.7495411092205901,1.6689452951673187,-0.10981588898849096,0
1092,1093,0.003103435728264196,-2.116009572796258,1.879779605190222,0.004867244755537221,0
1093,1094,-0.02880363139052951,-2.005897835269287,1.9774130099273624,0.03347569682937241,0
1094,1095,-0.020587034851204087,-1.6989482051966203,1.6799840331113969,-0.06043611976789266,0
1095,1096,-0.19603739267923237,-2.1970346820322266,1.9130092666607847,-0.042336984074623434,0
1096,1097,-0.04091883808238316,-1.7066841120786362,1.6481445787137927,-0.043472805532565204,0
1097,1098,0.013688828863764019,-1.453769797497593,1.5636904785937804,0.024528340584584363,0
1098,1099,-0.05336192958494279,-1.6312769762722201,1.725478209602251,0.00849966206938333,0
1099,1100,-0.013964708345825355,-1.7243599957694622,1.7320330154085968,-0.027921221348553477,0
1100,1101,-0.0013405894592359365,-0.553817843405561,0.40932671414651767,-0.49490999404900093,0
1101,1102,0.058532173766183006,-0.5178508537925051,0.8224272769683154,1.2045841918484148,0
1102,1103,-0.0064564103021523085,-1.277395430477224,1.4228958102478733,0.11731478384367276,0
1103,1104,-0.18675137339360584,-1.266216377294472,1.2649411809442488,0.3868263312967682,0
1104,1105,-0.2187798228043073,-1.3551833608241164,1.326695547600426,0.4199914129644307,0
1105,1106,0.3477623246697397,-1.1421371965387928,2.7399529076716655,1.2991186740772127,0
1106,1107,-0.193453867788027,-2.1648192585006614,0.8047367316364711,-1.8327225079913914,0
1107,1108,-0.0013113571907725403,-0.62402810652822,0.6819846761126797,-0.04639958862320125,0
1108,1109,0.21299059042739651,-1.3467250527076366,2.96492520688039,0.7968248126658836,0
1109,1110,-0.18737252464552845,-2.1816907689961416,1.1669300927842126,-1.1042492601419063,0
1110,1111,-0.4561188461470629,-3.2978908070829953,1.2175352549319745,-1.168209417784996,0
1111,1112,0.10505118224756217,-1.4222728577515524,2.1554985299672675,0.651801672672762,0
1112,1113,-0.2545451552226099,-1.3540489495987096,1.3516021280400463,0.5616114456772832,0
1113,1114,0.08067488011045179,-0.9253717564919355,1.0672458671744134,0.23948578174205015,0
1114,1115,-0.20378870980908673,-1.3709345291629917,1.3666102394783128,0.41895401466961135,0
1115,1116,0.0011928567160407815,-0.7114986636487188,0.6950444092624195,-0.08051062954537574,0
1116,1117,0.02572075202622527,-0.46964743951155224,0.4322586596958867,-0.2556608283199352,0
1117,1118,-0.0516583038558307,-1.3012734347774173,1.274346838732254,-0.008647883827170686,0
1118,1119,-0.1924622358038046,-1.2696555031715238,1.2798786621748022,0.44650037456903596,0
1119,1120,0.1767967810677136,-1.1514573827875023,2.520062657975037,1.3163956371616607,0
1120,1121,-0.10573745011727109,-1.5136110305834038,1.6046041252051695,0.16129293141849177,0
1121,1122,0.0371798380264027,-0.776663724397491,0.8694132756972685,0.12322664618666815,0
1122,1123,0.021489716860236523,-0.5635275702667906,0.5866238362509979,0.0746122928448647,0
1123,1124,-0.24935415752391663,-2.1810397485034008,1.4073552708621921,-0.11025414236509323,0
1124,1125,0.005280732642068024,-0.949331440679311,0.8527060315596368,0.024198621113134606,0
1125,1126,0.010988185980702213,-0.8173838309646085,0.8071944282107997,0.24068264437934483,0
1126,1127,0.0007662655613552283,-1.1745800893066827,1.226685293951308,0.040672004856295886,0
1127,1128,0.019116390585011824,-1.1878089523949906,0.9869515271326803,-0.3155751055829167,0
1128,1129,0.008523599974563652,-0.6651499783196202,0.7081423442724084,0.24034003016732752,0
1129,1130,0.009406174456718501,-0.6264015093079354,0.6954574180531692,-0.0003165093341821818,0
1130,1131,0.08234553045630867,-0.657379468389846,0.6631600389020087,-0.26031192650984103,0
1131,1132,-0.19374733934757873,-1.3770512580387764,1.3749189842705363,0.3519734968933601,0
1132,1133,-0.25126781633224177,-1.3708960387009648,1.3774627331853266,0.5415921071109255,0
1133,1134,-0.23680163366729748,-1.3336910510293423,1.3243951597568684,0.48623259087617765,0
1134,1135,-0.11038518510109634,-1.7390159887764098,0.9061529225998513,-1.0891254016310268,0
1135,1136,0.07796007690000485,-0.9762966910356533,1.360737646447926,0.537455696538844,0
1136,1137,0.010394475446186493,-0.39902335060180705,0.4656056031306435,0.34928128508807577,0
1137,1138,-0.0007090125418009451,-0.6753043750889314,0.5318535834507241,-0.4800231622441944,0
1138,1139,-0.07584609240641098,-1.0984304820415134,1.0904770251504206,0.17756166726942557,0
1139,1140,0.011155697637460467,-1.1911939397913085,1.1851387260657407,-0.005811985279018498,0
1140,1141,-0.21161474112079948,-1.3095647060702325,1.3299691301503356,0.4772255944440811,0
1141,1142,-0.0374479493167166,-1.2978271211658206,1.305291787825825,0.10688977959525324,0
1142,1143,-0.1247320532692906,-1.1625176530487638,1.177788946903101,0.37473972043489173,0
1143,1144,0.023758366521460045,-0.6122594503568861,0.546380769264752,-0.23731128418628322,0
1144,1145,0.017455778551345637,-0.6301972377667312,0.6198552152835466,0.05441512368215822,0
1145,1146,-0.10038565343175072,-1.3136284458926746,1.3314847618583234,0.26897308610586396,0
1146,1147,-0.1138935142628077,-1.4577794359193321,1.1991611944881857,0.11591551728908601,0
1147,1148,-0.002208091718063064,-0.355321791685668,0.38602549231052796,0.05115535990727529,0
1148,1149,0.005569012103735133,-0.3362055383112546,0.32117361193890803,0.009575165054111861,0
1149,1150,0.01006908247507928,-0.36428673095372205,0.38211625476442124,0.20102410490801498,0
1150,1151,-0.1267404426397164,-1.1879501762496136,1.2061416946390175,0.3329232254463536,0
1151,1152,0.016096850652015066,-0.8056322065672405,0.9499393115722912,0.09419922353831671,0
1152,1153,0.0032746900157807155,-0.25049396333684326,0.2660387817554895,-0.18592099683438515,0
1153,1154,0.004068814889908086,-0.22450166200396227,0.2446130705566147,-0.05379371800287283,0
1154,1155,0.03845713582278402,-0.37754992587377334,0.40347411139838674,-0.18364337849381399,0
1155,1156,-0.009985852296831679,-0.616173110821755,0.4239466817598012,-0.7385410412189317,0
1156,1157,0.11534089973048751,-0.5622401986646473,1.0377916564890692,1.4499467132708947,0
1157,1158,-0.0070602757793043125,-0.3159704970639363,0.26831986338753544,-0.19969589087117764,0
1158,1159,-0.14154408077649303,-0.9903232834978228,0.9697356494229397,0.3998981585058373,0
1159,1160,0.1968847720511178,-0.8283258604232218,1.6305020940040609,1.215255536946844,0
1160,1161,-0.09509730367284942,-1.126795467127902,1.12661108624497,0.2636472695426228,0
1161,1162,-0.2397521298215213,-1.9624876412991221,1.3682414643671232,-0.17585171910018058,0
1162,1163,-0.23659922378308929,-1.3032077232993369,1.304288307667285,0.460088237243527,0
1163,1164,0.004971110701737215,-0.49392954914596676,0.5431040492029564,0.04045146582778896,0
1164,1165,0.03063247974854143,-0.4906001059639157,0.4856670940256036,-0.014798060289282402,0
1165,1166,-0.23986674183301934,-1.777435473318387,1.4658877315498056,-0.029649424327985032,0
1166,1167,0.03327595391971569,-0.45159485304200664,0.4691430876016033,0.43223799967275195,0
1167,1168,0.03876945639271808,-0.6047527700485997,0.82449450872995,0.5607732466319602,0
1168,1169,0.07895607124069999,-0.6514439612445904,1.1339433741309743,1.017589627890941,0
1169,1170,-0.1480716771788522,-1.22147991926992,1.221313019769291,0.3990700416727366,0
1170,1171,0.05477159981616716,-0.9332551878563298,1.0197932499179319,0.17034351733538347,0
1171,1172,-0.0833886178705427,-1.3015060261010514,1.305402078240657,0.22260686028533794,0
1172,1173,-0.18813923313657596,-1.228485845211819,1.2194651662568066,0.4046823439459989,0
1173,1174,0.025526775133822417,-0.6896380657512402,0.6810890847762526,0.10591020088171255,0
1174,1175,-0.09621643119268193,-0.995576882975913,0.9956432483083315,0.2805726465377578,0
1175,1176,0.00469843124011111,-1.186200859386339,1.185825187537418,0.028990762380735943,0
1176,1177,-0.19063894810069537,-1.30970371304125,1.3085584608551346,0.45681733697785487,0
1177,1178,-0.25642930946598635,-1.3339802741177822,1.3184812018271956,0.5193703697114619,0
1178,1179,-0.11648333102292947,-1.3759536643381436,1.3810432975276692,0.25032576518253224,0
1179,1180,-0.2597150251132499,-1.3352692891287146,1.3355197779957586,0.5612168873255365,0
1180,1181,-0.17341767540908282,-1.3207504353631576,1.3260208655820551,0.35054709094382486,0
1181,1182,0.09899414546412362,-1.0573806560523669,1.7438345746047157,1.009649417745427,0
1182,1183,-0.07478659818280238,-1.2773427890228408,1.267336226617902,0.19525837359042314,0
1183,1184,0.03668650759253144,-0.7747079634330922,0.7189260744262966,-0.14087505022889424,0
1184,1185,0.07828066175036065,-0.6594173910484107,1.3534138232481654,1.5997893587207117,0
1185,1186,-0.008349469149802332,-0.17063044857769843,0.2075900615494795,0.36419146614458237,0
1186,1187,-0.0002676092363913931,-0.1436403909180332,0.19190014405651906,0.7245095460713115,0
1187,1188,0.007972564704027746,-0.2152108743342684,0.30823346888228237,0.9731296696232711,0
1188,1189,0.009409556344247434,-0.31160768270444045,0.34237748855731776,0.16691432538731804,0
1189,1190,0.01933483149832536,-1.017455422440508,1.0177722937690654,0.009676592208993152,0
1190,1191,-0.09904079450932157,-1.065293118496005,1.0647995599967441,0.2938043660045426,0
1191,1192,-0.16468635871389037,-1.065666475454664,1.0660446337579974,0.4253590278835024,0
1192,1193,-0.02223359447789218,-1.035711660681445,1.030396404753405,0.09907101543907572,0
1193,1194,0.026417339530524737,-0.5567040816022517,0.675979377215278,0.3487837016118518,0
1194,1195,0.10194057061168993,-1.0340291664401018,1.9555528858190727,1.451464577629564,0
1195,1196,0.00954926300831969,-0.39468134924085463,0.3563637550855241,0.35447501455324876,0
1196,1197,0.0005724397282531497,-0.5563359148602662,0.38702448377961907,-0.5469086092402075,0
1197,1198,-0.22354997786954664,-2.0112179099532552,0.8890816321427661,-1.1570489834706825,0
1198,1199,0.0215810304526896,-0.444808759211057,0.4669074610897568,-0.008210253644153937,0
1199,1200,-0.11660316938461109,-1.1091578368155404,1.1096028593642968,0.33521104500935867,0
1200,1201,-0.29584755366033894,-2.2508535859164045,2.107629511265686,0.2664177661466484,0
1201,1202,-0.2678228147782767,-2.385199643167812,2.4436281943727005,0.36706864679920026,0
1202,1203,-0.3521651378066011,-2.2155844502883206,2.1010487045973996,0.28789078815134,0
1203,1204,-0.3807564097591591,-2.3701039221944686,1.909484773190925,0.18433775970710056,0
1204,1205,0.030497397908236013,-1.724525326363402,1.691571175778928,-0.05353766144872136,0
1205,1206,-0.049009397870435185,-2.094515699548852,1.9595487086867331,0.12764424871888502,0
1206,1207,-0.11047276382989925,-1.919646579839866,1.738554919941588,0.07886989355134827,0
1207,1208,-0.14659208145242852,-1.895084738197411,1.7491037808587264,0.10743772397948595,0
1208,1209,-0.08162405484908473,-1.6683324873576941,1.5068657569914645,0.10173966286357425,0
1209,1210,-0.07336056170020583,-1.6265902421836826,1.5582595766658054,-0.002553950056483568,0
1210,1211,-0.1607569705902188,-2.0328537825949677,1.8282483936474971,0.21790570070725437,0
1211,1212,-0.06456371756800329,-1.8445449681647643,1.6686333210436866,0.061175207993370576,0
1212,1213,-0.044604803832561414,-1.539757827635582,1.5197631915098164,0.06133858076002794,0
1213,1214,-0.1906803893700139,-1.933763576431247,1.7276787768432107,0.2162775192951635,0
1214,1215,-0.060639657286599,-2.050027364830324,1.86129723185128,-0.047839362982806534,0
1215,1216,-0.19702059648385917,-1.8171791698894868,1.6659822776861115,0.17488796895365066,0
1216,1217,-0.1517650010941515,-1.7420129355760794,1.6386880981465004,0.17524904892773258,0
1217,1218,-0.04178073114838887,-1.673353057669683,1.6628137414978648,0.005688999518325367,0
1218,1219,-0.02690528509903654,-1.7117010758836744,1.6730429037032222,-0.024482995876357206,0
1219,1220,-0.18088523423601588,-2.001032878427937,1.7702235191661695,0.10481056101539098,0
1220,1221,-0.2776424703943789,-2.2087778732258907,1.8373661607953302,0.30446650807590386,0
1221,1222,-0.297383288390552,-2.1855175287466855,2.314752551334605,0.35989807748936037,0
1222,1223,-0.2975218199626948,-2.1461739087131657,1.9555178804845157,0.2859920045370778,0
1223,1224,-0.021010457778336624,-1.7094240439608253,1.6250406247604487,-0.00926941742475644,0
1224,1225,-0.442032669488644,-2.2225286460781914,2.0132787159474965,0.2868949645350472,0
1225,1226,0.039743417667468,-1.4645670047890695,1.6175727279393195,0.060957715253496525,0
1226,1227,-0.3693851610442751,-2.2070106601490065,1.7862897241949476,0.16051060864929623,0
1227,1228,-0.10148011244598755,-2.2200125593544353,1.6200423245979771,-0.2678373392240797,0
1228,1229,-0.0017099828672636173,-1.299277760686416,1.6579829994348625,0.13619712249608287,0
1229,1230,-0.12942633242613757,-1.9215913519928938,1.735443006111836,0.14776699019235712,0
1230,1231,-0.13121866235640858,-1.8294849455672972,1.903729706251188,0.1438514490977395,0
1231,1232,-0.3323462597982176,-2.042719878393874,1.8693585238193222,0.34124431547907313,0
1232,1233,-0.13676521493597862,-2.0408511730356924,2.059481825166493,0.19135268939034697,0
1233,1234,0.009573133966277328,-1.7250344099068222,1.6424501234700757,-0.054632397061253016,0
1234,1235,0.0061011323845906185,-1.570629550262559,1.5600068407255618,0.009256642303453742,0
1235,1236,-0.004323947800968349,-1.6081178622203085,1.5964838990179624,-0.0592149980290348,0
1236,1237,0.0075525742703440825,-1.4464424947161232,1.4499610102227813,-0.007835149525288713,0
1237,1238,0.011188373890710581,-1.6974298998629607,1.565484489890053,-0.03812311573599485,0
1238,1239,-0.04399987925423094,-1.5561822327545114,1.4203217520279219,-0.03837826633157438,0
1239,1240,-0.053668969924142974,-1.979074849278455,1.7893585248425576,-0.06369673445443985,0
1240,1241,-0.01449923765976191,-1.594577007474294,1.5967222782904178,-0.013683578064423246,0
1241,1242,-0.16956177846764842,-1.9531185211967954,1.7491637853418056,0.1309442474601328,0
1242,1243,-0.017715354976585163,-1.7023504008682075,1.624417164537777,0.059160696126758505,0
1243,1244,-0.06571715651835529,-1.767681112061537,1.6734035397098417,0.004702462395114348,0
1244,1245,-0.1395657873879347,-1.957925514478959,1.6123643238480185,0.03154040481101502,0
1245,1246,-0.08884495708341966,-1.7968612685077447,1.8696635214623885,0.15679120870282037,0
1246,1247,-0.023230287355699764,-1.5611968634895252,1.4277686159094423,-0.0201308877923749,0
1247,1248,0.021611854453725515,-1.5960456597800219,1.5093327078152357,-0.04667127091449523,0
1248,1249,-0.0009905508009071483,-1.4874262267988319,1.4406340833476183,-0.014323645077081979,0
1249,1250,0.01980273809227121,-1.6645793215321663,1.656452154478408,-0.015566193890671442,0
1250,1251,-0.019640751376852984,-1.9026752746294306,1.7261532527553474,0.09086293509240184,0
1251,1252,-0.0931370612807314,-1.6001032547921572,1.7732282327134337,0.1977699195219829,0
1252,1253,-0.0024847028980131947,-1.36516113359161,1.456296168535385,-0.01490035019180018,0
1253,1254,-0.027720593688191072,-1.4317483258439228,1.3621338994734777,0.03550973209942292,0
1254,1255,-0.322596115319928,-1.984131042434434,1.914608405327113,0.36293127292564964,0
1255,1256,-0.1589210811108332,-1.7825987268887569,1.6176223468601378,0.1769474381929726,0
1256,1257,-0.008351256308808593,-1.759876650189645,1.8160083948075638,0.08768100724757351,0
1257,1258,-0.047935938106762555,-1.6302400198611064,1.5937052233891098,0.06685309593296117,0
1258,1259,0.013208662438271427,-1.599075282608165,1.4884832614286212,0.0007506482825529175,0
1259,1260,-0.016097529793424332,-1.5571556770724357,1.650242908465251,0.08220221097991114,0
1260,1261,-0.12382068933706486,-1.673158367283863,1.6546311305357577,0.09429581509389598,0
1261,1262,-0.004585040178350998,-1.2653374313626276,1.4322865421806537,0.004439554750491347,0
1262,1263,-0.005765776661286151,-1.5835966732746531,1.5461890725931036,-0.016096786499327297,0
1263,1264,-0.12028340073553284,-2.0718243752402445,1.834974293546845,0.003067471954830297,0
1264,1265,-0.25092029984067055,-1.9986296416905447,2.07252968617054,0.30988919315295865,0
1265,1266,-0.07328446374667678,-1.773382607870086,1.693074622156859,0.06526793045556085,0
1266,1267,0.050437624816474326,-1.5295131836927216,1.5931023432129399,-0.05992285178503469,0
1267,1268,-0.048860612431164525,-1.7418447009711375,1.762931922655909,0.06899038098864566,0
1268,1269,-0.11991246214134758,-1.7248050601342615,1.710818499648495,0.10969274306121285,0
1269,1270,-0.05401408429781145,-1.7229482360282948,2.006075415131016,0.2248018224894664,0
1270,1271,-0.09641997433265115,-1.8489850574174431,1.5912377366899295,0.1075079184061889,0
1271,1272,-0.07269981360372393,-1.7313910288612977,1.7375936112968682,0.17907356339230035,0
1272,1273,-0.02821816282335098,-2.0796088651250066,1.8796166238759637,0.09461192820710844,0
1273,1274,-0.041568408597119556,-1.6130461922200308,1.7867431178538817,0.154002090531394,0
1274,1275,-0.18565369577257892,-2.0799459152171127,1.6276021750274978,0.05054673985681709,0
1275,1276,-0.1350936326963146,-1.9112846236487901,2.0676355965075386,0.3243634621339612,0
1276,1277,-0.07090134131289699,-1.5980943241893497,1.5560483758074874,0.13699003010998137,0
1277,1278,-0.03072551716928402,-1.6674514222366175,1.6490820427538693,-0.006582241991204287,0
1278,1279,-0.02398555752114871,-1.5203638973853266,1.4781005311587574,-0.014745076930964949,0
1279,1280,-0.12179303776591617,-1.8304992846494006,1.9389998334927974,0.1085612236973754,0
1280,1281,-0.09013829609610392,-1.5601987340377752,1.4337695325942619,0.09174342925892337,0
1281,1282,-0.0004266149856209979,-1.2441853044032927,1.1794057721586724,-0.06472022556448166,0
1282,1283,-0.14699545814263879,-1.6392785239136214,1.4930359314345942,0.1989586015392733,0
1283,1284,-0.06988121986056361,-1.3889247652063674,1.3051181087263104,0.11118458995611795,0
1284,1285,-0.16366583965080583,-1.6837782281253362,1.544486887358798,0.1802280291579437,0
1285,1286,-0.10359874842597273,-1.5579068902548607,1.5791721449351241,0.218535022598452,0
1286,1287,-0.12302304220780778,-1.4126635592252996,1.55419681346799,0.26586621676600514,0
1287,1288,-0.06521954744475479,-1.3448567371580444,1.3688825264784685,0.05365757372318003,0
1288,1289,-0.032367615063965245,-1.2439620557841153,1.2319053150761916,0.040173773895690996,0
1289,1290,-0.07292673854879671,-1.4697223799298023,1.3584403157356955,0.14802688208234038,0
1290,1291,-0.045711045881828914,-1.3651434373944569,1.2971086922999562,0.08611259751845507,0
1291,1292,-0.05198857130434672,-1.2915104374674191,1.2543964018295708,0.013879116617744552,0
1292,1293,0.04128797908879286,-1.295109627632033,1.2182011382689648,-0.12470188482617049,0
1293,1294,0.0027910581117849276,-1.3876665831730643,1.340841165712514,-0.0786093584798571,0
1294,1295,-0.02362120782650766,-1.348189045935115,1.3527086867718991,-0.006270701852718706,0
1295,1296,-0.17475160981546978,-1.5382246326998725,1.4249764262019127,0.26064742279617265,0
1296,1297,0.0076173628861122,-1.570169712153924,1.6467934853962687,0.0930233906200748,0
1297,1298,-0.19871473135275075,-1.4863227824124907,1.3640545922647767,0.26676822162726,0
1298,1299,-0.020530812387631218,-1.3563246872424783,1.3070360005183932,-0.04194943052307962,0
1299,1300,-0.0010543505402228759,-1.2944739261326894,1.2203959312025223,-0.02024819502416409,0
1300,1301,-0.044419997713861264,-1.1634555225891658,1.1226305607441853,0.09487803043151416,0
1301,1302,-0.01785415268126809,-1.4127718612520073,1.337191494786778,0.1665861371088913,0
1302,1303,0.1860098149841105,-1.7426888023995213,3.1294577222109075,1.386900800023285,0
1303,1304,-0.5772348594746768,-2.874270780617113,2.97411412757599,0.19241170589856404,0
1304,1305,-0.026341730471370273,-1.4816188970543478,1.2648692165262445,-0.37923148367137016,0
1305,1306,-0.1908681371565966,-2.2943321106283476,1.6553505393128483,-0.03506166856624006,0
1306,1307,-0.22283213302703744,-2.13379939231192,2.185800239695716,0.14661576186233197,0
1307,1308,-0.023812214235944457,-0.48249786257449323,0.5107746874198975,-0.003924412458147014,0
1308,1309,-0.018822220252188115,-0.43615555480535234,0.5030462444629564,-0.15680857787454383,0
1309,1310,-0.19833318891220922,-2.09595818260812,0.8448352362957339,-1.5544736084117288,0
1310,1311,0.005380986252057446,-0.7373346444613686,0.677145242260969,-0.39252278923269507,0
1311,1312,0.459918121423552,-1.0485760464099305,3.7252056330473167,1.7278764330306473,0
