Imf1_Mean,Imf1_Min,Imf1_Max,Imf1_Skew,Label
-0.0012587767695185885,-0.7871414443866704,0.71638790050068,0.12907172443358622,0
-0.0005066689850930216,-1.00762183447654,0.9040120075996294,-0.18849630682257518,0
0.016558933356753305,-0.9793250479113903,1.003193742423754,-0.08538739183895284,0
-0.0036159017666515677,-0.5744197500505254,0.6695080723766582,0.2734994276577917,0
0.001068549791079662,-0.5589964490527195,0.5624637508618235,0.10723856773643003,0
-0.030787891391248993,-0.6760963955170873,0.6624033914869762,0.019034504835328887,0
-0.021451490762977882,-0.5217710374134026,0.6823404394056378,0.2746401588632557,0
-0.006840082955298503,-0.6332304863563532,0.6818581637599253,0.10829053271760909,0
0.02713173791065018,-0.7788881133710219,0.9026118232984284,0.3118913604801727,0
-0.09790998080666354,-0.9735339820811263,1.1199728316743829,0.18092961151348685,0
-0.12718675924293807,-0.9777104700379338,0.9898333542173698,0.1550089415331351,0
-0.030235529279484166,-1.04566034075285,1.1807642797156963,0.05558919401067088,0
-0.14316727111332286,-1.2369265164788992,0.9579767912514151,-0.01925399402497922,0
0.05371427736558932,-0.7907469568233697,0.8628706122851585,-0.044261821651373656,0
0.0055391164953625,-0.7221976094042803,0.7437897631411816,0.03644367147240253,0
-0.05749379709321393,-0.8470315960828817,0.8045570121766716,0.00409242988068831,0
-0.026875008949448456,-0.7248959427926807,0.712085983822452,0.07463915654127766,0
-0.008573651359445907,-0.5423275980555133,0.5402072718017596,-0.05368429680637764,0
-0.0057298485172673054,-0.7065475489696206,0.7003682975279237,0.06422339281849557,0
0.015545491217665712,-0.7498870976155283,0.7423947433824107,0.09975717236577807,0
0.009770529455009152,-0.6164879490754183,0.623630882227051,0.14912874566221423,0
0.04962330298403816,-0.7479758733848993,0.7649497502298022,-0.09726225214443496,0
-0.05475495507913123,-0.960653175788725,0.8729802415231854,0.07571465094328378,0
-0.057920056651684315,-1.1425451861444158,1.3451486366057401,0.21746266381933102,0
-0.053416803560896536,-0.9892112075007577,1.0313358634639664,0.14047220447947426,0
-0.05146428302130577,-0.9630112981614263,0.9239405306153232,-0.08037220371639939,0
-0.07294455767488082,-0.991757805639482,0.8101051119557818,-0.16664771953293428,0
-0.026448286613324296,-0.5571874112204906,0.5444010744025407,-0.18917198130062812,0
-0.00448735788699509,-0.8598142232602347,0.9534663229961291,-0.055340876607251004,0
0.007192512587641889,-0.7809159927199352,0.8929888506976416,0.02311138444393648,0
-0.019693951338130743,-1.066625246638016,0.8316310547607693,-0.5536241316781788,0
0.054839657249374736,-1.1124540917833925,1.5131897852504377,0.5934179854515955,0
-0.02411027486190882,-1.0094599463764493,1.0536897832407757,-0.00370747009060295,0
-0.009927670527043542,-0.6347530489149779,0.6612354205703077,-0.05578938829244914,0
-0.08799225237258652,-1.3683573680379784,1.226595585637038,0.01905272336594575,0
0.012287338643840408,-1.2938188390000713,1.1825481202652146,-0.14259007725689263,0
-0.02545786997788171,-0.9569066691548209,1.1243924241729693,0.09718749356608075,0
-0.005677955320926412,-0.6385322310487707,0.7033984709612411,0.2198774323758448,0
-0.01931928563673584,-0.510628950279796,0.5008652159980371,0.039179994262199015,0
-0.02592344293336517,-0.49428869325406405,0.5193685775602125,0.024915773614168912,0
-0.016654524115420014,-0.7502930722761243,0.6973098758649743,-0.020619205027521247,0
-0.06618866359828654,-0.9183447503911456,1.06623058166334,0.11961206200302621,0
-0.08432540605148202,-1.0626493535906651,0.8992070150080314,-0.0003249292912092648,0
-0.0018640187317099227,-0.6781913883621995,0.6454152408736609,0.008526842010067471,0
-0.024794023566391054,-0.7190855075615847,0.6649985531855996,0.048061653316300836,0
-6.07969856501594e-05,-0.6326647722377092,0.6157219222092799,-0.00512980860253914,0
-0.02670051259760514,-0.8885319318053826,0.8664010797418948,-0.08414862640679374,0
0.04836169699662681,-1.0774790151357228,1.1281968983338695,-0.12220196404969934,0
-0.05397912179764402,-1.1608834520754694,1.089897387735491,-0.026531535217318235,0
0.0005317634051655052,-1.0942144217391891,1.0151832267999037,-0.09989296827100463,0
-0.20101368668133687,-1.9005889583031887,1.3225980111519,-0.07048276033664531,0
0.011691841283141505,-1.3314440917338353,1.1956665148316918,-0.021642521343271583,0
0.04598573133957007,-1.0608802415419278,1.1263269446877617,-0.016878785187428694,0
0.014450347657266749,-0.8582575856412034,0.8697991334480364,0.035525578035351266,0
0.020122286340984796,-0.8300395941928239,1.1209387949453524,0.22791290984893045,0
-0.01942910562003816,-0.6997728947379276,0.8114934084544665,0.16364260745408193,0
0.010050613468522923,-0.6338702569475905,0.7395101938376749,0.015580339253408891,0
-0.013717424027198612,-0.5913518199522851,0.5207093285053839,-0.3571677149711912,0
-0.008873956880827984,-0.5881227599232481,0.6214707523397339,-0.14996402245986204,0
-0.007895726265975615,-0.7828970712121632,0.7515278496932618,0.05962884897672004,0
-0.01692021860701566,-0.8362824582651449,0.7529548789119611,-0.12512667941050837,0
-0.0018085023318771393,-0.7867672029355097,0.7092766819561037,0.03174436958887163,0
-0.013039541949106122,-0.5227972582287043,0.5490630793793831,0.11857751591665124,0
-0.01988395146152046,-0.42037480812977834,0.48285943440430357,0.05670204940044665,0
-0.027527152095659774,-0.6370888964312268,0.5719764319433562,0.08606009656952829,0
-0.022756456711189726,-0.6434282649862437,0.5910451880662553,0.12500112595631824,0
-0.016763249294203204,-0.3988223114845274,0.4222332805023614,-0.07523375169780042,0
-0.042580682083133585,-0.7014796170338313,0.5327342320866559,-0.44125545238598907,0
-0.01713057199875227,-0.7697988358734431,0.6049128337174029,0.04762497895998733,0
-0.030310806562301566,-0.9347545395133217,1.0664355223643387,0.1504156393386788,0
-0.10186275219483974,-1.0751740141485855,0.9607207948714709,-0.026807100254490204,0
-0.13378371156239718,-1.2773990860689088,0.9982602912532916,-0.0719183941376499,0
-0.1294168733557921,-1.1089936874123827,0.8843520584517371,-0.00650050756874154,0
0.01793213222407222,-0.7193886749088102,0.709380503167045,-0.003067322250290369,0
-0.06955619038222909,-0.9765024783546213,0.8430020781779444,-0.024190927412745176,0
-0.14229904246029867,-1.2208993035640607,0.9631076552739151,-0.019134454774208855,0
-0.14519242907106655,-1.1714831141670405,0.8984220204102373,-0.005140495581187262,0
-0.023704117455175935,-0.613817171323917,0.5078232501583153,0.04156805443409817,0
0.022245805403018588,-0.6627357342764181,0.7037852003753073,-0.03579502583222641,0
-0.037203053477911155,-0.8398384536715771,0.9286502359521179,0.1435640811630105,0
-0.026302817688025462,-0.7169767063969323,0.5454923552761668,-0.13599143556174734,0
-0.010006796023472504,-0.3581120624130901,0.37772428955640414,-0.17445587170655383,0
7.1156022664840375e-06,-0.5982949206889352,0.6320724275103091,0.23171484696582528,0
-0.01675201756092756,-0.5667015587891555,0.5517129715190223,0.015963705871414855,0
-0.011414616078084036,-0.48073067224492994,0.4766788857743591,0.07036712829583515,0
-0.01057025121840083,-0.5073589187608102,0.42129892523552503,-0.1557140051024947,0
-0.008945774080552074,-0.3687105029255171,0.34855028884175066,-0.317506789359739,0
-0.004987236303103132,-0.5344688576227727,0.5372507373296099,0.01510521071519718,0
0.017582199655026744,-0.6037416146433339,0.7332744622845564,0.14560337473699433,0
-0.035389888812948335,-0.8283507445568414,0.6430673586133961,-0.06520071818236917,0
-0.010937124316965917,-0.4545139438592466,0.45525237752745207,-0.13459809374066764,0
-0.03216348740710832,-0.7291965822719659,0.7393174915451464,0.22752472117371728,0
-0.041723185791224186,-0.9337182693693424,0.859841431731181,-0.08861960328820544,0
0.005897819576919572,-0.5440058465456743,0.5993168411215593,-0.09682300000103707,0
0.027551819217111403,-0.6006818261422068,0.6545039301045043,0.13338955561543736,0
0.0014086365313132944,-0.6323214195594632,0.8138781538682881,0.29099817970102293,0
-0.0034253441614440043,-0.26551781526240653,0.2944531363894567,-0.027941956629328458,0
-0.00941711769235505,-0.2082246579569056,0.2102052244008895,-0.552938680628588,0
-0.005707456634686625,-0.4970225510349464,0.5528332257263904,0.11603154953158304,0
-0.01455639172305333,-0.5786476507659293,0.6511861883733574,0.0791459734734764,0
-1.950850808276404,-73.25793307150506,63.25497160252351,-0.08350351118497928,0
-0.059604293039495715,-1.3370495982663986,1.2884783458607532,0.11908394252351706,0
0.05125244059647752,-1.0844381394943692,1.0820024235006525,-0.11231649765394124,0
-0.022546722620013324,-1.4114728266408638,1.3243813983208705,-0.12080563485377344,0
-0.028687024641655474,-1.86068903722179,1.5367695880539092,-0.39833753991086507,0
-0.16146939490371084,-1.8970081759646913,2.0743325805011112,0.1279337156927105,0
-0.12997209358311354,-1.3269989495506427,1.423909473421522,0.16011389865366038,0
-0.18121195447512528,-1.283176608006323,1.1283153031543969,0.20760594217318726,0
-0.02703013221589115,-1.1056207620629785,0.9704017735914587,-0.10591512693053973,0
0.03008779844235644,-1.0941782199532137,1.0578522802619539,0.08671941219365882,0
-0.06235777002057922,-0.8999005232212522,0.8526970804123695,0.1867914249698822,0
-0.022049828009357397,-0.6244797691053044,0.7014091561668543,-0.1337124121446523,0
-0.021590839345299106,-0.7917237859533568,0.7211120408992505,-0.39975229109322497,0
-0.010192783309439953,-1.0164875794128658,0.9094445645781108,-0.20952173856359058,0
-0.042271215370972885,-0.8975990863951198,0.8868692629379735,0.05447106451098145,0
-0.0018956024063154474,-0.9343869222815135,0.9349368353160729,0.08484331182561344,0
-0.00819697279938165,-0.9802558982425496,0.9892439718260668,0.02135784016262821,0
0.006815160591192246,-0.3515472359664692,0.34866945236049907,-0.25674985292483443,0
0.0006428671363509416,-0.5655141535416703,0.6295727438165453,0.027664087321621532,0
6.08347555866931e-06,-0.4919732581283196,0.5174235201491321,-0.021621975742884224,0
-0.027789731180940986,-0.6105685015775562,0.6989049277709727,-0.17466478304561675,0
-0.024297954921747994,-0.6191662394139283,0.6542936413959982,0.2185495275913961,0
-0.03904124863972257,-0.8735086563266626,0.7467589156961636,-0.28971666342085267,0
-0.047281166044124225,-0.5805605620105669,0.7225388481568735,0.11806765599193314,0
-0.026717197002604543,-0.7445728232708078,0.588986030838947,-0.887838984621302,0
-0.0070990022810612065,-0.6225085154156977,0.5838562908289247,-0.2090948963839013,0
-0.015980470376539185,-0.6821063819776992,0.6544500983770656,0.00047393899456068807,0
0.0022418090624993833,-0.29914174487192824,0.31006395705891343,-0.11824522764910618,0
-0.010729269868994688,-0.4254391459059724,0.47475679319635383,-0.20328989381437526,0
0.009686980991094189,-0.49920661491629004,0.49624555277782334,-0.1580408006981072,0
-0.008974524663501064,-0.5999325804322932,0.5587695569850536,-0.11840328791041319,0
-0.04868041205948779,-0.6914927684372865,0.6561310635269932,-0.14175720105301187,0
-0.03778180105156694,-0.8671597842802193,0.6599385244867088,-0.20497598343199866,0
-0.03979518471098218,-0.6184802389349775,0.6844497555150808,-0.018062202344290994,0
-0.08826894732851602,-0.8011035965487963,0.730167785274189,-0.082582969898859,0
-0.016935847746116704,-0.5330517734885218,0.541581262166809,-0.2592324328364827,0
-0.026736239821957993,-0.4806610384655582,0.5607057389481371,0.13910107046606265,0
-0.07835309568073325,-0.7402700244675535,0.7076542006435402,-0.018666570344410688,0
0.018739902437969316,-0.43893713825101266,0.3794122912365595,-0.03484516261196421,0
-0.05526794208864172,-0.7137141008068099,0.55771598443486,-0.11002073380460746,0
-0.008946258442641375,-0.45659406415393256,0.505375845209629,-0.38548093433117514,0
-0.020998745819350333,-0.5865543090343331,0.6198035471244421,-0.019573791249759855,0
-0.041741007106346394,-0.736820031454184,0.5198796831542744,-0.37258748823637694,0
-0.02926893111177641,-0.5314371723784818,0.5347259116137417,-0.28256938025471523,0
-0.0074550938423009775,-0.4553001710403746,0.48731317700240184,-0.31972290977264994,0
-0.04066829092880064,-0.6029959962044216,0.47284893196385,-0.5141265199167988,0
-0.01297088205637271,-0.4828335878738845,0.39244391772537957,-0.39877126589061046,0
-0.014893090047104485,-0.4995448045830361,0.5128174529242286,0.08175236827133002,0
0.007568692658239027,-0.35366246611617175,0.31185915103431805,-0.04491687261187407,0
0.004146586383098092,-0.28383512250245,0.3028290728408205,0.07222999129316632,0
-0.020629798105538125,-0.5549600670712223,0.5383689004745649,-0.07369568237836319,0
-0.037176614572581174,-0.6245008593462753,0.5459998990248963,0.14804303980158617,0
-0.008108467257302422,-0.49253363170308506,0.4255148488649253,-0.2739832808560776,0
-0.014222899541920369,-0.4465621909855984,0.4710051421245602,-0.37847366764437845,0
-0.05293045909011209,-0.705016815166978,0.5402661293799591,-0.13553214002714598,0
-0.00480738095618002,-0.3615732625450727,0.31550758222933045,-0.43395007182015605,0
-0.029620572204073135,-0.4547826381962035,0.5077326450332351,0.06898053661605812,0
-0.00405714032536759,-0.23622863142718065,0.2715197168267067,0.07890619196656216,0
-0.034387463495140026,-0.4875796377891538,0.5468103554145943,0.18240933969647186,0
0.01348235626990285,-0.4919459937978724,0.5429612523632574,0.21410497796263722,0
-0.04077387924526008,-0.486053778784498,0.535895242152925,0.1502537952286571,0
0.0014565416252230188,-0.16942820578436418,0.1574604981635646,0.05095558920611101,0
-0.0227639927490247,-0.559361947863098,0.40315055967940006,-0.6474676312133041,0
-0.022096672724820816,-0.43298193259180007,0.46620461702834126,-0.18960603462932338,0
-0.012278621099224467,-0.3996252410634591,0.45827504217136883,-0.22699070988001296,0
0.003986922555419748,-0.3517522750749163,0.33632924136572967,-0.20720462104938286,0
-0.00898172033574507,-0.36285000789315336,0.34451013181855783,-0.16080181393908602,0
-0.035518811214038756,-0.4630033483641677,0.5320886241373713,0.10369468695335683,0
-0.0010847787588585073,-0.2891260842605947,0.3557019360869681,0.02846994653628951,0
-0.030166093048929126,-0.6901776068954597,0.6236696625558913,-0.27270760005702355,0
0.004131431378300287,-0.5205114346697327,0.48236766905489803,-0.06259173048720142,0
-0.018250709667361465,-0.48793125005407634,0.42831859077306533,-0.4842511866542999,0
-0.020554219112236132,-0.5911994662099951,0.5282922157658592,-0.62421253299224,0
-0.03276332725515719,-0.4475418679214459,0.43325267959287794,0.0069924122129665115,0
-0.00851776976029347,-0.4043042651516196,0.39072825716362913,-0.5219548539875892,0
-0.006487204588003234,-0.3565568523215579,0.4177366998091432,-0.3106125044413187,0
-0.020088911526396417,-0.3730432195130735,0.3388235469987849,-0.45325855595131015,0
-0.008524781290613645,-0.28321017009581595,0.33121108464453375,-0.23941995847061612,0
-0.006973321809084718,-0.6035849417375105,0.48522770212177946,-0.16002860943850727,0
-0.015074601442296609,-0.4039190380457268,0.45004981464245575,-0.14385909921844836,0
-0.002096388339711823,-0.5247444962662591,0.4931798627503837,-0.27147947067229355,0
-0.03285753653856208,-0.47665082735500464,0.5087550778694352,0.1271288606885387,0
0.00038625417185396876,-0.4393508924339158,0.4601348031625213,-0.009919108389401944,0
-0.018323362998867224,-0.35849786068318534,0.4523798222018627,0.17767262203373888,0
0.007589971440535699,-0.5173299151335291,0.586842843005845,0.4455471900346651,0
-0.03730403345305503,-0.45193139462364884,0.48528248406869073,0.04253424733953142,0
-0.008614412034099411,-0.31303482526135257,0.3421202972484295,-0.39123872323242526,0
-0.0009066670863588115,-0.2330906322860859,0.21701883208140102,-0.16933750905489225,0
0.0005579688457067519,-0.5045416334883404,0.5110423016470612,0.23146321230459985,0
-0.023990252436116393,-0.47592495692777315,0.4749066567986237,0.029000167964906915,0
-0.026246909544023284,-0.5410362426368811,0.5040934325013435,0.02770148257737363,0
-0.0034460287304551008,-0.3958648108974039,0.42773158484205576,0.13800003728738452,0
-0.041791771353484254,-0.5948410353832654,0.43137838381976057,-0.279709368766967,0
-0.011456111468557855,-0.4066620095702121,0.4437143357882427,-0.2720546792307245,0
-0.008753704624491774,-0.437883114270475,0.4569827576890122,0.06025619877618242,0
-0.03598064458805244,-0.529405865873878,0.44676814134763293,-0.23488149757123686,0
-0.026580000819141456,-0.42110979850272434,0.48680827717880415,0.06809308694867292,0
-0.00020177242258159525,-0.2604287354983216,0.25351542791484216,-0.24405013304152312,0
-0.016540097734439197,-0.3726782117868179,0.3762859796522564,-0.24502338425336753,0
-0.002325015766722747,-0.32766235961569706,0.33440110644179,-0.4597000268399494,0
-0.0006604730094401523,-0.12390318292212427,0.14733619199976378,-0.06542426175620382,0
-0.0008088303699861459,-0.24547246415109503,0.2121914284677469,0.04192166656556286,0
0.013515940742723316,-0.4549739040723192,0.5728604494691534,0.4586117180129799,0
0.0055322272752774205,-0.3972650855134283,0.33324841746077694,-0.026504921057698094,0
0.0163802229391491,-0.32610063745697015,0.40022827153407015,0.7397608345737992,0
-0.0033916981970938,-0.6442768540374584,0.7614823015928088,0.057744437091464165,0
0.006005800476130591,-0.4180840951839754,0.5143873585490809,0.18249525158354876,0
-0.03503350565783752,-1.678780668036469,1.881587993419265,0.15441359640438346,0
-0.07076646427863086,-1.6623282632025025,1.6181490036492923,0.0457843320304385,0
0.016087876328031825,-0.6302168519410749,0.7359967115633175,0.28175455292775436,0
-0.0031017949736873826,-0.40423433724196234,0.48944078309134575,0.41086748686809715,0
-0.02794707876601051,-0.9971411828532877,0.88238444337607,0.07055106776903955,0
-0.04221595635902489,-1.5742123278072808,1.1134024649273542,-0.46686118601784415,0
-0.02658342460899087,-1.1012427447638409,1.2727630959440697,0.4210382363288599,0
0.007486832471561657,-1.347475630886473,1.7403286480733908,0.2810522559327043,0
-0.26183512143112436,-2.530994004323458,2.4141501063765065,0.21642097336225366,0
-0.09007222460963821,-1.6178557675182996,1.2594343853307182,-0.33901141267744794,0
0.019464470801152545,-1.3857341019387894,1.2963059804048793,0.10861099978696667,0
0.0282442970882182,-1.2202707103858037,1.3134696357191746,0.046695837638183135,0
0.00045967101277918037,-0.29826317932885604,0.2897877876999714,0.09859825046114035,0
-0.0020219300862695613,-0.5458343827032974,0.686660285127401,0.49610198446957243,0
0.003595802394603139,-0.7299805678322868,0.7080754568805272,0.23231395102347005,0
0.01480142654251509,-1.0478481689412522,1.2002372898925566,0.16570865094419895,0
-0.04134519319933281,-1.4148642430691862,1.4533023650807464,0.07603996547852594,0
-0.13071355393656234,-2.784891764844354,3.00210377537248,0.18557469131135393,0
-0.10673640335041967,-3.0603624043688495,2.6563242063981143,-0.15969858177419233,0
-0.37486543027382496,-2.9557056088652542,2.8542910909097436,0.25614292527350796,0
0.07726057692088814,-1.4655015754952845,1.8086379375392294,0.12796975390654128,0
-0.31761127112091175,-2.7103539595349417,2.76282695943282,0.29078846606221304,0
-0.0315236581246322,-1.688767713551063,1.429822296207918,-0.03950409834675846,0
-0.019688764284807994,-1.3389123215387637,1.1395678674985072,-0.16511061844681513,0
-0.16484782191142566,-2.5425736882080443,2.6536196865689883,0.12190296015878171,0
-0.01413715430111604,-0.6308108732605542,0.7339161008900117,0.21318583109896957,0
-0.07867382620077341,-2.4683474970724433,2.5937069823896075,0.1610515638418027,0
-0.0014333322515170535,-0.3662156781760635,0.3672745371708921,-0.12875232317975788,0
-0.21243369017695654,-2.101358889675714,1.1081593376315764,-1.382953586228018,0
0.011778927097325182,-0.471074786945312,0.42012271360393294,0.9075915682229166,0
-0.056582749522331076,-1.3067900673546176,1.311824213597537,0.15227039798077216,0
-0.0009405282735710808,-0.35643710984223587,0.42462922547313453,0.3089734279478799,0
0.021933906321485865,-1.0806399220167204,1.2926667080721315,0.1281843223998247,0
0.00140503764086711,-0.1878098930591996,0.16087440786806254,-0.33347548594513227,0
-0.05153933095359744,-0.8430274817034789,0.7900801051354944,0.18249299435965086,0
0.027019284522502962,-0.7230284196407923,0.93954567574338,0.9919427235393251,0
-0.11316317357716688,-1.904861985168615,1.6875119459806287,-0.00046159883730234385,0
0.01699510509310207,-1.0496842220004008,1.036718190973227,0.19321282931989187,0
0.020899987923411686,-0.9105197247441861,0.8279807437232544,-0.05036624068173581,0
-0.18326623134453165,-2.275473132604291,2.0376349301353454,0.11861279957690457,0
-0.010142925280419634,-0.9127478238764248,0.9752577184224264,0.23515072932310635,0
-0.008717774056123928,-1.4862477364843663,1.4735023858271572,-0.10309833550101377,0
-0.0004120095441388245,-1.351929170851085,1.4028576259065595,0.22550260235144656,0
0.04387796733166569,-1.6127589262397066,1.5082014499639889,-0.07215198235213746,0
0.060201612996119765,-1.3545358179230282,1.1813202930576696,-0.024540506417983277,0
0.033534167409302505,-0.8463424137364088,0.9074816768523897,0.12568093035891303,0
-0.0924893425827395,-2.3543720394017575,2.668614021537081,0.11844709405604904,0
0.027646740615135935,-0.9748388041582285,1.098829334684026,0.2772003798371385,0
0.09478876766650395,-2.82251741415123,4.379532266972759,0.427485972359261,0
-0.08817774537122713,-1.8144597614585738,1.9299350269558277,0.07491659639229238,0
-0.12567650245113404,-1.7148579011720972,0.9220397060609828,-0.6836139952530779,0
-0.12910183454468294,-1.8894203468196251,1.6650857841776532,-0.07949019697286021,0
-0.3201932511348247,-2.5976577620343693,2.5857787201203153,0.2815893945018226,0
0.08853499272435428,-2.0989979100186282,1.6268509057439764,-0.22213441040956694,0
-0.028750557125092616,-1.8337919949216255,1.9030248494689377,0.10937248524892398,0
0.06337844739084152,-2.429021771677977,2.071298985627866,-0.07100310373355849,0
0.008200939942266205,-0.8741682448566397,0.7945174013221776,0.10134565814454288,0
-0.0024553074304355864,-0.3741014105437652,0.4940087736587001,0.4050234421591404,0
-0.02715150549570136,-1.1788136479997064,0.8688059253431165,-1.0368666526381471,0
0.007693357131355227,-1.5832884545667034,1.3040150809939248,-0.2161847263912938,0
0.0034350998469411553,-1.083303557133933,1.2633364345668916,0.32466298689390566,0
-0.10625802120898516,-2.382601717216804,2.63293796730587,0.0688991590432498,0
-0.19102615061949532,-2.3481503028358413,2.58733922597367,0.14077033976250242,0
-0.017044031909338227,-0.7340940649964587,0.8652651595815026,0.2538647422001515,0
0.03379369917415863,-0.9665831835816376,0.989740114530527,-0.1417846092876604,0
-0.31484814191991445,-2.4232957541772753,2.6836364917143074,0.31897361207661745,0
-0.39507323435903613,-2.8486352211199217,2.9434193990724875,0.3257931920933096,0
-0.2864553782009513,-3.4396744372643138,2.9413223550329075,0.11409958731185009,0
0.026719115190274877,-0.5820703590128662,0.6129716355184773,0.1239285480843121,0
-0.10152702067208315,-1.76519554186175,1.7630502420497003,0.15164328393501977,0
-0.00016546703018268752,-1.2351055096557024,1.0509519739128779,-0.1500105099207188,0
0.0006095130338823335,-1.3533554338074234,1.2712666188171133,-0.007507613968561731,0
-0.06646849896787443,-2.842644679152583,2.79376371042737,-0.08875847635152703,0
0.0047522425832179855,-0.1833295354385207,0.2006627014345168,0.02812275379206619,0
-0.00986435980959523,-0.26409610846376874,0.3581538112917442,0.35177631687645783,0
-0.0733190887995102,-1.9380588497641362,1.9485445471935767,0.08708778298246159,0
0.023098887113861186,-1.103619149486231,1.3258695541408327,0.2895652052554818,0
-0.20686690391432916,-2.1539062071347193,2.1666348561994266,0.2044825371282579,0
0.11370264466759832,-2.102517422272011,3.9427633606466443,0.8639707890372549,0
0.039833984174833,-0.857515771589823,1.060994634547435,0.3862726356298426,0
-0.12580444766923973,-2.3873981943196174,1.5258258502139608,-0.5258507368276387,0
-0.264409165440786,-2.44954125942448,2.4212418970870253,0.2695520130271082,0
0.05426306959525646,-1.2964843933476078,1.425401423122886,0.21568836902058922,0
-0.1454191402636744,-2.0974275725329496,2.1454773534242095,0.22754016279458453,0
-0.15275157571531475,-3.1608029587202457,1.9970280079151947,-0.46051682679135364,0
-0.14602551447135015,-2.8118240504305376,2.743980169169352,-0.31377144352336667,0
-0.1368338788666251,-2.550914401397961,2.47113470367671,0.14323679480149265,0
-0.05879457194396882,-1.9917600817872518,2.413279547603707,0.2279239547977578,0
0.019588438908687056,-1.3242105573596867,0.8784538673580975,-0.5363014193357859,0
0.003945011236739441,-0.3075424176207533,0.30402401343626184,0.0024531897567611613,0
0.015723309572754873,-0.5122716541788739,0.6529896056440088,0.12058762879972881,0
0.08097928317185947,-2.7534820137515292,3.8733810785820033,0.2387396185055631,0
-0.1319060006780338,-2.7004411329338964,2.451133209310829,0.09807650956474782,0
-0.0902115843838937,-2.2733176323433835,1.9485288490061903,0.03920925721693003,0
0.01233605733972217,-1.6470472551191135,1.558467672033813,0.05288413854559906,0
-0.2610171961767481,-4.179371578058468,4.3079611941743785,0.02324359291225913,0
-0.28733644213899323,-3.667766906775991,3.2571781186564452,0.07826197924792096,0
0.0009168288322842036,-2.936287959400782,4.634249036979799,0.3609235449112585,0
-0.01919832024678943,-1.2535149182694039,1.1062467882623606,0.22231898598644512,0
-0.18834027923465577,-2.0688335908037816,2.2306199700510136,0.24393265450589613,0
-0.10369479090666489,-1.7713536223682982,1.6071665287088188,-0.17358646027028318,0
0.04881830823712834,-0.5646455312329366,0.6681780156763337,0.17799098831376212,0
0.04164273328906516,-0.8839467480365071,0.8399426255207244,0.0494829731406848,0
-0.19852672235196292,-2.5544629286738534,2.5383677693338265,0.14037455108998484,0
-0.38553427584057265,-2.763329686389472,2.7644846410284027,0.3591702084499147,0
-0.12815576735760528,-2.935344557542429,3.319095754339139,0.06903396485464892,0
0.09591780287809315,-1.6731992524837054,1.7091468583844058,-0.12289297953732686,0
-0.16654960994003312,-2.876239592256196,3.3017883625581392,0.23338422269889866,0
-0.08493238062926028,-3.2837234697186375,3.173380913917228,-0.07175215502605577,0
-0.2265928556206922,-3.2723668438568554,3.577475259126844,0.15162581957377533,0
-0.3647732877814161,-4.027774550135397,3.923423219808856,0.16130191708246147,0
-0.3313841499282019,-3.6438595778781364,3.74247101809184,0.17805477856640683,0
-0.29243056071905066,-3.5219167263071895,3.5732150260114195,0.20777881105113577,0
-0.15049871161543624,-2.902506268155365,2.3203648093627782,-0.03848318952524813,0
-0.610000525995935,-4.076973988755805,3.933092215764103,0.2740474965379525,0
-0.5430874773203311,-4.272407585992441,3.9663443075360347,0.06583334587243211,0
0.04690673049332983,-2.0793870716014307,1.9248746544078283,-0.10181999599044571,0
-0.12048179700999932,-2.5212665952950823,2.1795814291860385,-0.04713915524602062,0
0.01615068081088966,-2.149766205174981,2.214322478826441,-0.09302361217721271,0
0.07965653972274446,-2.462495141328222,2.1509001649324535,-0.0510749824768269,0
0.099849963629234,-2.4537881343133896,2.2087925616556703,0.076627458408464,0
0.05398420673271967,-2.25310704377334,2.0512889262092875,-0.1414473605863758,0
-0.5171013356821458,-4.078688755106701,4.107216693416488,0.19473066157214852,0
0.16129618259152642,-2.0698940391157876,2.2862487998111227,-0.05298027240389639,0
-0.03353260456058053,-2.2556453236427974,2.063754882873216,0.10605645000848522,0
-0.3013083236574307,-3.963267433925431,4.464292333777273,0.10574529647630365,0
-0.11830611191844587,-3.1526799290016094,2.500063174265579,-0.14977480739732912,0
-0.40640080370183423,-3.95969969572141,3.8341251293720906,0.20602857620979723,0
-0.512849578087604,-3.3195512038261024,3.3378498324203294,0.3542564978520281,0
-0.42201635728743137,-3.626114574551184,3.642754119543402,0.2651505634210406,0
-0.45172378707399075,-4.843639561071319,4.04188604190806,0.009863350533255976,0
-0.4267189337842628,-4.5022180277258785,3.7596296606142166,0.10287457590833088,0
-0.12693046015454373,-3.6769861469080487,3.725436911257624,-0.10557311041523584,0
-0.21185656256013705,-2.8364250281686725,2.8346415484913896,0.18340898590833854,0
-0.3436987772909929,-4.064930074209444,3.168960366973428,0.1339591489746663,0
-0.4967496807900938,-3.4159375375525523,3.398726134778191,0.33479783122796264,0
-0.36898178637197426,-4.002725689982514,3.9857631610716036,0.15871359001052007,0
-0.6721019607054831,-6.2177748929059655,3.7500342849922044,-0.5877832497883138,0
-0.18264155694098227,-4.342458536096787,3.8438736517033725,-0.13031219046893952,0
-0.07968688277396338,-2.549510465934972,2.809774292241074,0.2669818312939257,0
-0.3040605292993737,-3.297876096177414,3.180319941061706,0.17426775425311147,0
-0.10475805605371453,-2.1776363516657202,1.695137277392174,-0.2951137089201393,0
-0.22602613454776813,-2.9757039204669002,2.923399220949724,0.1589989592683671,0
-0.2551683615327469,-2.978251926760461,2.386893776981481,0.08278479196663131,0
0.03609396121575056,-0.8515662853361514,0.8164926640143837,0.058885774018910514,0
0.030156348094594516,-2.219743271164202,2.9419328270206178,0.16975262673972336,0
-0.32771833500688397,-2.926926354280244,2.9362540427850625,0.25344408644682137,0
-0.21998691759340505,-3.8840504991177003,3.4970836914918157,0.09504428384348108,0
-0.15647121568230057,-3.3914258506318165,3.189146165501785,0.113726957987543,0
0.1046785449598649,-1.8497480179502062,1.693734109271897,-0.23618717543418744,0
-0.18386291344513225,-2.6115196788773645,1.9335615191041962,-0.19250168363035203,0
-0.4256619292273139,-4.452030975794353,2.9212118706770074,-0.09718578163619666,0
-0.06922237391609669,-2.4659501625761524,1.6972959097319538,-0.20587628626061125,0
-0.06386217056633034,-1.9458780061447052,1.9354546943980886,0.02271319822589104,0
0.06472374376005194,-1.680267283842484,1.6355061849768648,-0.08120698984529157,0
-0.13614490636198642,-2.5870426533287842,2.040393785302295,-0.006303288070213419,0
0.08342701476555403,-1.9909330136610022,2.6984845989741455,0.2216710482566189,0
-0.17259392336768162,-2.4616272634406244,2.954706645095375,0.17860806860095316,0
0.015248987132523475,-3.133362050117352,5.427635171313874,0.6627500990339131,0
0.15523427557736766,-2.221562676806384,2.911404860015816,0.41837938806042546,0
0.014414254334213209,-1.8219814327869104,1.8256620387573517,0.027423644542874267,0
-0.5788030171171744,-3.492599193779121,3.163170367468801,0.3132279847762006,0
-0.21758773699086076,-2.919806094742361,3.096231984258738,0.18753637516295274,0
-0.44971943746642395,-4.034905785488149,3.7411626702522045,0.3248878654433615,0
-0.2584195897449051,-3.9628645832677556,4.209601313046731,0.2472556398081436,0
0.14221333297771724,-2.5273553575597427,2.6840627153157315,0.21467715986103142,0
-0.20154445353273207,-3.103329540770003,2.2642899672785397,-0.08750311236536742,0
-0.2740007368120306,-4.086522988548069,4.069271328019342,0.11629215886085577,0
-0.20124652073080251,-3.6501434986498973,3.901042987837853,0.10512341333268223,0
-0.007845548872652902,-2.8924667940708204,2.228615972137299,-0.12658936906559046,0
-0.4209279422181352,-3.8980762732162466,3.6842305945625524,0.1911870404925054,0
-0.07235018681608676,-2.1691895375738888,2.319163583010184,0.10867936006161705,0
-0.030882553182969858,-2.1614426578944084,2.309951235002389,0.2567729554754565,0
-0.03934591997730862,-1.5372364083039307,1.3151333366806592,-0.04016859623864261,0
-0.11919288029581605,-2.128324637031297,2.054461145331893,0.07110782429341884,0
-0.3195608934599203,-2.5659158648213993,2.07751449512871,0.08825436027354862,0
0.06734189225770947,-1.753884114213338,1.56607579737517,-0.06589643543821692,0
0.056637868805015174,-0.7653694035195895,0.7845448133884294,0.11759834108571537,0
-0.25512565916060487,-2.6235896264450544,1.073234175548134,-1.566391494124565,0
-0.25215513343842316,-2.3831910361460684,1.3218644437863891,-1.2098357413816847,0
0.0011557835013111088,-0.7640350295397427,0.8066629762099444,0.20608173841256963,0
-0.059545613874318316,-1.5174238077860058,1.7489587456810136,0.10722249428519598,0
-0.08273170456204604,-0.9259287820653841,0.9120634771331735,0.29885794532531634,0
-0.0003077799900896774,-0.952454859612689,0.9465841345531371,0.49516776803754886,0
-0.3256781253806127,-2.294919414861499,1.7614509712845936,0.0012332123295230536,0
-0.24714436912988932,-2.430456634476724,1.9143299975377652,0.06773842011523805,0
0.008587356412684594,-0.5167959338032682,0.6188168824479418,0.4842026636521659,0
-0.0058583923642732795,-0.8544170289906718,0.7303685997994875,-0.25135076537989115,0
-0.004369360585430975,-0.8005928225875426,0.6574324709984174,-0.4582834918072287,0
-0.0780771270352337,-1.1620328521084509,1.4622660466668447,0.21798444267717584,0
0.024255756529526263,-1.3620564857693704,1.6791994140664888,0.1486032931688302,0
-0.03450294965051596,-1.063368483711541,1.0196162283560026,-0.03519886662573393,0
-0.04499485792884597,-1.102972736941946,0.9469696887857744,-0.014454031114629364,0
-1.3140835613863528,-7.777447413307545,4.777583673356663,-0.6967348316886353,0
-0.4470919054823883,-6.115395879863868,9.353765627126375,0.5075844158502647,0
-1.804137942253325,-5.849307495703042,5.620068429713419,0.8389656865075955,0
-1.4142930123443123,-5.983312897199758,6.435104196579392,0.6049791069779409,0
-1.336135611394533,-5.655090427175795,5.661827782042723,0.5873823436734825,0
-1.1754516074699637,-5.69529751657192,5.701118103677905,0.471513507149275,0
-1.370034836610089,-4.729595850675354,4.643098955855741,0.7251573786589102,0
-0.3319481138661702,-5.3219140626490615,8.049120785693832,0.5932035105708646,0
-1.0626472283930541,-4.230914869717619,4.14707874510888,0.5454178350288469,0
-0.7093580381735952,-4.610081352005441,4.174093237374397,0.05109306720398163,0
-0.15467703744464276,-3.430976751145237,2.7495398727691853,-0.1459151591761885,0
-1.2050702148438515,-5.789646997616659,5.448727816110393,0.4242311542452315,0
0.12583175680243538,-4.109491148055074,8.416532689281922,1.2109178206973816,0
-0.9797913189237951,-4.913848386240462,4.77936006905498,0.28171659356768636,0
-0.9764370294525037,-4.553782604137918,4.233285136790618,0.4815000268792964,0
-0.3850914363133004,-3.545038538439993,4.272706444777803,0.23891130265716273,0
-0.16510775261552266,-5.194962625279439,5.469677229301571,-0.21740558456482936,0
-0.9784265604695666,-7.494513252731534,4.453532917267926,-0.5210421585035585,0
-0.3952449306229755,-3.6163308985334073,3.3405613947920596,0.04557243150275666,0
0.009432601210722516,-1.7293653592060627,1.8094469735959615,0.0648381082052156,0
-0.7879892819287729,-4.478884299957569,4.045636016230916,0.12496902112180298,0
-0.4977241264046999,-4.0177006904971915,4.1987214318586314,0.3490263472781682,0
-0.7862962678299423,-3.6547033997321545,3.7095874336050274,0.5259934206175066,0
-0.69089464979344,-3.926582463917077,3.9427306459682745,0.3701348060297686,0
-0.377933915060674,-3.057393130515511,2.4032580222837248,-0.15929793334672493,0
-0.3266253352383586,-3.0274501028599934,2.1812792704639685,-0.25192939509666823,0
-0.11180987022362944,-3.0524043383031354,2.6669755241352564,-0.3694338665989999,0
-0.4359096435582169,-4.668083976742606,4.8049294781391865,-0.1378087262919396,0
-0.22351203457233457,-3.1198990896795245,2.628535377275015,-0.12659547580103767,0
-0.9448853342975623,-5.022346059707695,4.031077932670382,0.3455404513605127,0
-0.2012133651393839,-2.732630236872838,2.151369824782279,-0.09297177780006795,0
0.1120515497636715,-1.8587615598248879,2.5633404389344974,0.4325174622404883,0
-0.004713431787550844,-1.6884198944828421,1.4310763452941782,-0.06352628260102021,0
-0.2694283022711588,-3.960054087370356,2.3556723233805856,-0.5568054390874112,0
-0.257410584583388,-2.7026464173386593,2.64426611155033,0.13623749187198503,0
-0.5380053247597144,-4.089636951173163,3.8791690407405213,0.26891081650751497,0
-0.23493416020506364,-3.683845505020903,3.0948973270682387,-0.3694932338945751,0
-0.7580632723516126,-4.1257785908177596,4.060050732160859,0.29973714791536565,0
-0.4181123867050423,-4.962950069030627,7.290266732430526,0.5133543045966154,0
-0.8524102638985521,-4.946637247282046,4.035215177090429,0.03727453355719784,0
-0.410316081160427,-4.839887015080162,3.495162503814852,-0.4238075532923853,0
-1.0543187481914178,-5.770823488234956,3.5388058936794593,-0.2706755235702694,0
-0.2747419038248609,-4.141442196047848,6.4552904197416785,0.6571661843751173,0
0.06869753129296019,-2.0881359631865193,2.053675303722329,-0.0678626070345162,0
-0.4054901733954978,-5.200956639514407,3.2722073278958392,-0.8927885798392577,0
-0.050812424084960194,-3.0066180859532183,2.6543166217209055,-0.07221844283133187,0
-0.023560321264114878,-1.681657523139918,1.6231102495611256,0.22295927738567237,0
0.10304319435928566,-2.557287804445271,2.6546411258802944,0.010127574786776845,0
-0.13757514436071597,-3.2118296759852285,3.2002909093052585,0.011080589869668622,0
-0.7756804992947098,-3.8492494582478454,3.9143814772117933,0.4679120135585219,0
-0.1986580153276626,-3.8357612548268385,3.6842864423350177,-0.022084813612711612,0
0.021580534432841737,-1.8731460871798937,2.028723351570945,0.03360252564973557,0
-0.34616435330195117,-4.223668567348278,3.8513477273814107,-0.07848183149926811,0
-0.3151145068768839,-4.237842064433409,3.861115282079685,-0.20074767742163901,0
-0.5067896404549084,-3.823212571519446,3.932107428454171,0.22064869466618525,0
-0.7082313369059846,-6.849405961293813,4.65460165810744,-0.3189112546375098,0
-0.9173508392850115,-7.865135319264528,8.9359778627173,0.0014240036627667918,0
-1.1875658202892232,-5.954572275204016,5.9554141991804475,0.5469056592104752,0
-0.5760506627229464,-5.509794052764933,3.9518678833116994,-0.3215041593842249,0
-0.5731790550367946,-4.303747652649702,4.153003951462413,0.18257714918364665,0
-1.00364096421332,-4.665954422455226,4.613348228125183,0.5276605130862958,0
-0.3820200540969158,-4.20793401011478,3.8654471686362166,-0.05310958975668212,0
-1.373215440123552,-10.024988174737263,3.9596423976503945,-1.1115676545582567,0
-0.7765015532088415,-4.808348358456268,4.889385357512605,0.16307183867902675,0
-1.500314734786399,-7.018105504254878,6.976836834175683,0.6696292880478086,0
-1.3895534730139951,-6.364060813239998,6.351616162070879,0.6336025043261453,0
-1.4733889990119822,-6.54757686282397,6.573350600461039,0.5850288704389874,0
-1.3657747866093608,-5.344120340394947,5.542744075311732,0.6232679810082538,0
-1.3165168535226182,-5.623747715485022,5.234471847313101,0.6532214046021804,0
-1.4003284122745985,-5.68110984982558,5.628930245623518,0.7468219528921272,0
-1.2006562944466095,-5.804933709776059,5.851862769254547,0.478442045955453,0
-0.9694624747266536,-5.409202881917828,5.527565226984839,0.4777149321841079,0
-1.6437826408658784,-7.6848930436992635,7.740232305073137,0.5247847646925704,0
-0.3385183648989991,-4.869271986027965,4.386664704669937,0.05327035063685404,0
-1.2339691595924442,-5.883327988283261,5.921135789492572,0.5491099627131757,0
-1.514806529641603,-5.9469739917079485,5.946233964827184,0.6855841289010559,0
-1.4304035274968516,-5.517822854265012,5.515861670411244,0.7050414670451253,0
-1.093838513426851,-4.249931258574493,4.220365796624135,0.7105237929142192,0
-1.2554595608085248,-4.355691119729913,4.34863709633599,0.7741658323410979,0
-0.10466698323719059,-2.242112249504494,2.2732618473669697,0.062863789453093,0
-0.575111769438802,-3.5835536350001806,3.269066210218968,0.24593824526901828,0
0.0630173756952825,-2.4839082369652297,2.7004921143449447,-0.055345516808647056,0
-1.013517381002876,-4.446533985777249,4.40958963165469,0.48285402250092235,0
-0.9160027492620021,-5.082108174650458,4.997402869155103,0.36531485675550673,0
-0.970437079578741,-4.700716631034343,4.349411282011216,0.49749446923986773,0
-0.1934791690754016,-3.007124540868453,2.969575782008073,0.09215663335171032,0
-0.776736528375813,-4.610428163054192,4.478392926896566,0.3167994402725623,0
-0.11428983416534204,-2.720089724245795,2.4387258869691655,0.0496248586218377,0
-0.3235517370062451,-3.9976385233161476,4.163630911320935,0.07384693715505226,0
-0.20731335229873268,-2.652221382846903,2.3171636591547076,-0.03939526303761477,0
-0.5052437282030288,-3.4764148741539436,3.4585860590159525,0.21803538450830676,0
-0.8592828321334661,-3.5584111864911057,3.5331151045532643,0.6083942382304879,0
-0.41370424255824484,-3.6292064991848534,3.6074151825587304,0.14502726035690564,0
-0.9957158378915502,-5.023694536396292,3.7698847493834506,0.23144085519544783,0
-0.6023053951962319,-3.8868581925570966,3.560530827439644,0.2868361856026893,0
-0.6313392964596053,-4.660855468997868,4.138950989700056,0.09668847550354497,0
-0.14615381201365166,-2.447120190300801,2.253878802362756,-0.004773340056349249,0
-0.28008046783016344,-4.050727959320713,3.4106666531385827,-0.36167789649552307,0
-0.5232955478876663,-3.8977542274484676,3.820312207653,0.15261964658256774,0
-0.8941630246517525,-4.080787420089841,4.083148987389633,0.5238368773110198,0
-0.8689878532581617,-5.742389470804129,5.635478320612463,0.16528043945834958,0
-0.05723850705233047,-5.79009810649861,6.553030611579267,0.09788662764013095,0
-0.6550161244650395,-6.949210074390416,5.591649082409872,0.0664988594520526,0
-0.32938097230174285,-6.6365353316275115,7.977223495019686,0.27941931868495273,0
-0.6777728758087379,-5.876564615868476,6.744309144133144,0.25736887219339016,0
-0.9756382895325008,-10.04084744026732,9.602709006428688,-0.032180480606337214,0
0.7117009774372388,-8.064069007151897,13.885628006464101,1.0524310956518605,0
-0.6628028669954563,-8.047271142485762,8.53660479111323,-0.06147307013238357,0
-0.10362524562008558,-4.781200242296612,3.4727650714769362,-0.29823752016935834,0
-0.9504555446600816,-4.127574146273421,4.137827269110238,0.5658018862534987,0
0.000750562093842703,-3.3350673451649975,2.6002225480726917,-0.1987923200465831,0
-0.8160670374371412,-4.19282019377359,3.986777100840909,0.3900380568782691,0
-0.8544338756702109,-4.10381394479553,3.994597631335207,0.42079771956566187,0
-1.5392032711392094,-6.033379876919961,5.865201579820409,0.6549082003110601,0
-1.1078043841651,-6.030920336040805,6.14578490732894,0.43970859034634135,0
-1.1506113600022143,-5.845046480309486,5.858221275468001,0.4673491391427672,0
-1.5218366202251712,-5.934923990783192,5.867155836602903,0.6475345140269136,0
-0.7476130679904295,-5.914857747676731,3.2562811256614737,-0.7808380026185247,0
-0.4769508277839815,-4.321810708565695,4.365099248671143,0.36932329422852134,0
-1.2814117065946726,-8.382179775172675,8.321862270841656,0.4407710499853127,0
-1.0618375713811785,-7.953759495146408,7.922695344361738,0.27561381829335707,0
-0.5185346292014877,-5.819383720197299,5.171950975692427,0.08195572177151204,0
-0.4223903743674751,-4.411968998035878,4.3628208768312975,0.1768899816174251,0
-0.7150558506073056,-5.348923891915399,5.453943210671897,0.2851386182087458,0
-1.4963480519593897,-9.605688038578904,9.291098938759067,0.3716744640483011,0
0.3773249575787115,-10.240561069485237,14.278286181515256,0.3343538881271178,0
-2.266523271595005,-15.010930775175808,10.30962493267971,0.12249697103302712,0
0.30585093816823566,-9.841373252702487,18.08941840990056,0.6639010280118397,0
-2.396012394004552,-10.553903228568727,10.819690593238306,0.5306445489913629,0
-1.2330184875226469,-9.921568491803676,15.770409361041594,0.5059512342712813,0
-2.1704967838136646,-10.015155288624053,10.232328405667158,0.4382777794174715,0
-0.7521714427210981,-7.588873618484721,11.969556588772683,0.6517181735488691,0
-2.175481854941633,-8.933008776450258,8.505257399334592,0.561803567693429,0
-0.7649196191431006,-9.028197914138097,9.255050170180564,0.19882179191380217,0
-1.6523930053703275,-8.056117844185774,8.04075351115933,0.5096880112900816,0
-1.599890288684663,-8.169914193155137,8.162775279219453,0.4437905502484339,0
-1.9342380751211283,-7.95097740869265,7.642758640256462,0.5923335537494865,0
-1.4224177478018205,-9.050014287805233,8.99130568241365,0.43571556646542936,0
-1.074050838609916,-9.165174349726804,9.02366239037262,0.20624554680445975,0
-0.25205181115653075,-4.704882192908592,4.186356652825704,-0.04053827585667901,0
0.3872563547478154,-4.39877281638855,4.048717221309191,-0.17147930425604574,0
-2.199729700745675,-16.78690276213626,9.734395531145664,-0.8529037390115265,0
-1.471574768063726,-9.172581156884487,9.330252751983918,0.32244310383619706,0
-1.3505544608435045,-9.946064407716571,9.87848216162802,0.2451920058172884,0
-1.225554039828683,-9.525877157949655,9.29612497187129,0.15560085585018496,0
-0.6162606610950333,-8.658866618665414,9.194588588958242,0.11831930256802166,0
-0.9100843420378645,-7.198990865208354,5.8676589076099095,0.0607490198158721,0
-0.1990409674630742,-4.5166014570528095,5.155337809602289,0.09254617635327657,0
-1.6257024987093887,-8.8624856696641,8.878701619215938,0.37958549068092035,0
0.5910166257994209,-9.220476883261984,17.653395473867455,1.1908853117317375,0
-0.45874567950416534,-6.9365602467659695,8.060887632227631,0.11355073408552556,0
-0.27630406589275675,-9.63324179163915,14.691112527403888,0.4488763163729558,0
-1.9846785810583452,-9.66258952762007,9.460348105455253,0.4764987597938842,0
-2.1376982403719853,-8.662991075398459,8.436964999894188,0.5884292437760378,0
-1.8020426458576446,-7.509880754030655,7.48326345970947,0.5285485015438526,0
-0.18457473580964345,-4.138645944889111,3.8426018997105764,0.016776694147459803,0
-0.5158264968035199,-3.4597123263693366,3.935155443698033,0.18510107156647285,0
-0.012341294394368605,-2.656073896872993,2.6351217965524496,0.04171866192102837,0
-0.05191184589469555,-4.052641454284576,6.76423758587725,0.8258544607232248,0
-0.8536676738769148,-5.054097216657505,5.069380254880478,0.32168216398526905,0
-1.2291725648136858,-5.2429670206944206,5.416851868373249,0.4357096104064689,0
0.011440092354089845,-3.637534781951768,3.4515665603728967,0.11275096021989799,0
-1.5445935237880815,-8.1281161047695,8.245210819296965,0.46860601368758903,0
-0.5618879519976357,-7.5570200483287495,7.604273864814124,-0.1213661463832267,0
0.6630378120962843,-6.735120732681798,14.522032271654467,1.307451945876434,0
-0.8386364419764485,-6.033452464614071,4.9869658356924065,0.10568002689650444,0
-0.7860772156961956,-8.72719702515803,7.810533148589156,0.019428771686991527,0
0.186002995753219,-4.549912269747799,4.401723018652952,-0.1819490312162823,0
-1.015465688860284,-7.057046554980111,7.331863575779474,0.18161126597981372,0
-0.5550587944075023,-6.1943541470307135,5.245620553695815,-0.06482892383012497,0
-0.8932000631050171,-5.772353564798027,4.6506305640095835,0.1345296702066178,0
-0.6520137562087193,-5.568821105227885,5.980000843673928,0.16156579013536915,0
-0.2567312185263678,-6.497600726751319,7.966571435438946,0.6036293939451172,0
-0.19791605160684875,-3.7159215940747288,3.7988491240532944,0.18068230483477066,0
-0.7226539951167771,-5.02553068997344,5.66318996403934,0.28373605654576567,0
-0.20306030794878235,-5.798617328563308,5.535293480330201,-0.12330822245288567,0
-0.7727099287467222,-4.972244926926345,4.224588259968485,0.131931970213809,0
0.2791326947567268,-3.574359375977707,3.748561058578913,-0.07127065575756772,0
-0.10366079740658136,-4.0747867238574695,3.8439952159595316,-0.16509650237225867,0
0.0016195371535255114,-4.0411894840779015,3.79918883019566,-0.17338790399219364,0
-0.48601250933844337,-5.061110087284257,4.1372486230586984,-0.07555890433979622,0
-0.5957229773748481,-5.686632453579488,5.833898849919455,0.18559158925195998,0
-0.5935377908327065,-5.02970634126129,4.127942764322086,0.031705826290706084,0
-0.8155473357430655,-4.773285348826921,3.812691467247631,0.15297221908331507,0
-0.8048602086235911,-4.875209822513888,4.860392745164324,0.2131958824297941,0
-0.4884478026774495,-4.881494303644965,5.063366420734772,0.15966778130579937,0
-0.8920037257782187,-4.720658981934618,4.1655580205934015,0.3265140420705181,0
-0.7389458314709386,-4.542010937730865,3.6791885532885003,0.13679901845313489,0
-0.5263039984273806,-4.201837852341088,3.866801427162435,0.1642406509625056,0
-0.8150121686821036,-5.279751687707437,4.198624858407108,0.057010602718310883,0
-0.5133484991260285,-4.593840155177157,3.7691242741792683,-0.029695668783454275,0
-0.11513681420634385,-3.3030306910740066,3.643610219481385,0.12156408113981837,0
-0.5529542513768653,-4.037780504621925,3.5775319385554365,0.099729547791378,0
-0.06360678753710336,-3.4164321744785973,3.329931691404507,-0.05059401534235336,0
0.1035178812916091,-3.4749416008476346,3.275976388242538,-0.10100027525647479,0
-0.032661952159718156,-3.776679176236525,3.505383892381834,-0.1318366510674119,0
-0.03563406040874087,-3.7194001807453154,3.7145665313171676,-0.009637265265366459,0
-0.33739525119012326,-3.831254416485211,4.196224239999859,0.2565387529365053,0
-0.0012668494779126127,-3.356150702146907,3.1624063714967874,-0.1291503881923994,0
-0.5509354684565623,-4.175012705521656,4.3844933217492486,0.24986110864667085,0
-0.21680722316634682,-3.9802876541806604,4.068493992358909,0.06078565803949087,0
-0.47127535981337715,-5.572484152342055,4.901050806737629,0.0033791930762653516,0
-0.13196983597148582,-3.815485390455404,3.6761154498286635,0.00045296776530821174,0
-0.2140099991851779,-5.116024171502721,4.1153263919533325,0.04166915850237206,0
-0.6721315035934828,-5.342097751113293,4.950741451870784,0.12316128961672168,0
-0.3696149780557412,-4.42878653964822,4.189951841923809,0.058664577729735025,0
-0.4924728224589419,-5.381621350083957,4.439309263315444,0.003942959579363005,0
-0.1595661611072145,-3.2931165205411146,3.428442128237589,0.047390211871471695,0
-0.35580618819392007,-4.916558269588261,3.730338012711761,0.0014391353816104655,0
-0.10728015186439321,-2.7150253903866095,2.804749265920284,0.07269781918118125,0
-0.16304194563712957,-3.457756103008296,2.9819432489293076,0.10460545263915819,0
-0.49190442395916517,-3.941807169808188,3.1390900459688895,0.020926575369829645,0
-0.216574732775528,-3.2184878780388724,3.2921697406115764,0.06591269397492618,0
-0.408041240195185,-4.380534303021129,3.7794525834343453,-0.00938906002296804,0
-0.12657233591018965,-2.9173191408741097,2.9962695761408247,0.020102741787603205,0
-0.45847626544305836,-4.330502770505019,3.535983171240831,0.021251961744857776,0
-0.4431466434334886,-4.757601857897757,4.588432760329683,0.06237775080672316,0
-0.1555795207269811,-4.096593784657115,4.315363637036837,0.11491357353980382,0
-0.24519586692122286,-4.207052271532504,4.4600194691105255,0.16497580641161758,0
-0.2360651311588652,-4.468856332021713,4.406567176448899,0.07116492735672124,0
-0.26919979092832874,-5.601206378912591,4.422931893030194,-0.04260367866777129,0
-0.4717269888957871,-5.56016714250944,4.34045209551611,0.015883515594640046,0
-0.1568816994432303,-3.6242457731464706,3.4299621270967293,-0.014144296411411371,0
0.002128249835527248,-3.504253408240717,3.1061873696529365,-0.043666128235019336,0
-0.06551362477131419,-2.7087707971727335,2.7245459050916265,0.020323607757190918,0
-0.2902958908358166,-2.9840996774148287,3.0570686172551866,0.21281292920315908,0
-0.0959839311571888,-3.0170894526935,2.712152934106234,0.11886966517689669,0
-0.10999999514960614,-2.604071093631161,2.618738340078503,0.052355379596923234,0
-0.28438730841462584,-3.5077516743127926,2.904105579498983,-0.0014881056256738912,0
-0.16570416488368092,-2.429094236004452,2.2745656124513283,0.07697427147828306,0
-0.19749531883378388,-2.6866323094546374,2.5623317512097845,0.07329282769239746,0
-0.36585205559110184,-3.253574929196085,2.969910461323325,0.022165652233346374,0
-0.3347833775495081,-3.303210276855417,2.699989745373907,0.025823245850305845,0
-0.16248079629199932,-2.8361378053926622,2.6676443005549264,0.15065946299430089,0
-0.19010272891297178,-2.5464868590803924,2.4112292901307444,0.10296437697057971,0
-0.3043303396479741,-3.4399672108003996,2.781234117277386,-0.03174059027191574,0
-0.14913194584878833,-2.3545406575966137,2.328113872959465,0.05222379067779212,0
-0.061309685084232846,-2.428361253605008,2.7291642576795176,0.04616239235466921,0
-0.40469245918341246,-4.335154818092295,3.5390370580503276,-0.039761750123627086,0
-0.5358262855077864,-4.3361936706274395,3.3218767174026205,-0.019060738790612927,0
-0.17513121450359292,-2.883763846616833,2.84591674156096,0.0888984008660047,0
-0.1259338407076946,-2.4243258298216843,2.472217343666834,0.18567722928610772,0
-0.19380666150781,-2.6286078262559456,2.506494940740208,0.0340108431083203,0
-0.41640808657982253,-3.430143579869542,2.9463699478752625,0.0688300871523152,0
-0.16502901967495834,-2.6173712440803016,2.521559324223687,0.02286610624232232,0
-0.4148503896120184,-3.2726644993132608,2.4728107044012138,0.0003977855636588318,0
-0.190628337417589,-2.5031921773451984,2.450798699469926,0.10049939214944988,0
0.013760387214324982,-2.287956827058709,1.9826607066979407,-0.034822582933558936,0
-0.03992435658067348,-2.5224055877150295,2.5016093101845227,0.12117713835098633,0
-0.2840260715522096,-2.662278014911464,2.486736970235604,0.09215470710663162,0
-0.41612326008411676,-3.20325621546434,2.698992878507891,0.05149034156667218,0
-0.18976585192983944,-2.6238030880691565,2.763090136407685,0.08698029542878269,0
-0.3866531499480872,-3.9755669575230783,3.870930715241484,0.09580711618823282,0
-0.30255451783182485,-3.4521066576834833,3.2478047335005207,0.1395978072815585,0
-0.38163671594517923,-4.168377873087988,3.2570032569404868,-0.08390305439715588,0
-0.20773465655642975,-2.835815587068845,2.838754157576377,0.1111956943858026,0
-0.27677632993703327,-3.715208288488394,3.0753502226449037,0.061541902715437496,0
-0.24259687248121617,-2.7302377636867208,2.6629476980841105,0.1427190642067068,0
-0.2061846561256123,-3.197228904140803,2.801948255133379,0.00241964479687186,0
-0.13176049628415795,-2.3082259159253846,2.371623159736043,0.10846031249807268,0
-0.325385295672149,-4.055096743673005,2.57394017914618,-0.2660029880604168,0
0.030901479878120825,-2.375503351810936,2.8116397860000797,0.0767901292924849,0
-0.25266116642593933,-3.9092940182498475,3.0771040394397513,-0.1979480194515488,0
-0.20605203234644862,-3.4199172200316568,3.1616836145077265,0.170426640070301,0
-0.40250915801459386,-4.26310499887781,3.505128860445669,-0.03325176053170396,0
-0.48694854688810557,-4.193531749680131,3.099099455766993,-0.07970541840894836,0
-0.3208833414789541,-3.737246176700798,3.068510002904328,0.007284537613655853,0
-0.20054816228009123,-3.044426156486788,2.7027069077971726,0.17497576324169756,0
-0.009106799223127618,-2.3063470612705776,2.473196224671776,0.03775002260523709,0
-0.4167103259257107,-3.423198965726044,2.641785188659963,0.0037593022902032173,0
-0.19235032665375537,-3.022580880274571,3.090067358983646,0.08073551670015838,0
-0.47594929949733883,-4.256508765806437,3.551250589800861,0.07544778395334277,0
-0.22417380199657308,-3.022498995340378,2.8703673987920078,0.1674473496216336,0
-0.2958051684979972,-3.8813556553921953,3.2048701409757703,0.0007697510552177651,0
-0.2643261795291428,-2.955492108261212,2.6798701337713005,0.10564875920857149,0
-0.28065848085258555,-3.5914609461517712,3.052519893168416,-0.0007572869251847037,0
-0.19127030253004543,-2.6040983170494045,2.5199252709083106,0.09916059836209233,0
-0.21365516577527097,-3.496889638669084,2.672480053622344,0.01368007210915208,0
0.03538786595605814,-2.1640838532458586,2.2101773474363586,-0.004681442930564793,0
-0.210363805041351,-2.6561829759225875,2.5877974425596366,0.005845966450671483,0
-0.3535468492071954,-3.351758264072693,2.904765085253271,0.11173109308290075,0
-0.18342197648803474,-2.4628581439064643,2.5275264545473846,0.11781284803471744,0
-0.34313118772008583,-3.4985852298724804,2.940156413018588,0.016587655379493204,0
-0.14073921946081414,-2.4694931808170084,2.5714081976573553,0.06475422534482939,0
-0.32660804432052565,-3.6230075906366404,3.1151985345859754,0.034258556068264154,0
-0.2091111397123766,-3.0106336829174207,2.987676601652751,0.15303808076989112,0
-0.18303005348884807,-2.922038544985349,2.892151677680718,0.11694818434116891,0
-0.3916612962682575,-3.789374063885443,3.2477482751926203,0.04835844726662053,0
-0.2000786193198186,-2.8729287455027865,3.0157311151023674,0.16960843452950575,0
-0.0159911835233725,-3.4580439944714167,4.387566880262494,0.27978209656384284,0
-0.28063496864458126,-4.465541338699406,4.842763279467443,0.1994796872018393,0
-0.166785313407958,-4.472523435481192,4.7923595009877875,0.08168544956458351,0
-0.4569283548414396,-5.936906452141361,4.651153059662704,0.07361354086728246,0
-0.530638742858458,-5.706254658480088,4.7080362202889745,0.0674614147140445,0
-0.3600061362522224,-4.084590490151557,3.972426254529842,0.1256833633439443,0
-0.5110789278361317,-5.050444445879801,3.810060179012786,-0.04677390846178659,0
-0.2792545701414963,-3.3867419180262455,3.2871577286915246,0.14774888938947683,0
-0.5057509276497609,-4.123500092686387,3.059922117822667,-0.04967468963670073,0
-0.27783146494008987,-2.913803581325971,2.9409605787476907,0.1140342691263873,0
-0.04517863546058457,-3.3695628406760925,3.6309342031041103,-0.0766627676984056,0
-0.16293173180766346,-4.391768889465578,3.930178389145112,0.009565875738812821,0
-0.34720224588302434,-3.879459300338962,4.024250185588352,0.194866462816996,0
-0.22396010418263723,-3.62223192611551,3.890381979730381,0.1202864647441914,0
-0.27239271317964353,-4.4432148822476405,3.7058478460651587,0.1421532655331648,0
-0.5586231683906568,-5.2156184653207855,4.674136122091462,0.0719971996544135,0
-0.2973728258573099,-3.8108692535320134,4.065011449285481,0.15060909626739202,0
-0.9301543738988292,-8.24805309908897,4.469207654174433,-0.8129887938290755,0
-0.20373649475070843,-4.589422534276627,3.324666445348642,-0.03455282239695931,0
-0.22583368595129724,-3.4505299848810562,2.8190805758170097,-0.12104804015968777,0
-0.12097625075335831,-2.9747160904904995,2.482402110175277,0.01643330415192354,0
-0.4650799572843698,-4.08494981586114,3.326255620698123,-0.01585558814160734,0
-0.15185968013542062,-3.2019966951286385,3.700685588886177,0.18582721637380653,0
-0.39022925142221837,-3.925943941215531,3.627875954383742,0.17514106534539373,0
-0.3245860676984866,-3.7483507329003394,4.3046013966207965,0.2202529207205732,0
-0.271182744784593,-3.6742407038538984,3.7517815507361894,0.11626668944357636,0
-0.131386868918043,-3.4965538275106742,3.834584753441961,0.13225368867596266,0
-0.13575560861936062,-3.2842081458216366,3.654344585386883,0.18174829357648406,0
-0.17182882378073358,-3.2882725754315576,3.505209239129744,0.24997083269751152,0
-0.2818251195632226,-3.78779490460167,3.821073463650473,0.170762634359459,0
-0.08634848966848553,-3.4025742353691006,3.261051570085051,-0.042561447399606954,0
-0.525484864293457,-5.4447779220045875,4.1822775061059305,-0.10598859213638474,0
-0.14275747460523164,-4.56924263952755,4.651024038928835,0.13702796167569825,0
-0.3282282544438212,-4.23322507037175,3.9758185972179407,0.1129007190772114,0
-0.292858620861121,-4.003087319821725,4.214418155666435,0.09557464169724744,0
-0.6106185632822364,-5.641683969385314,4.602896854894756,-0.055207722795157746,0
-0.15682288262210195,-4.46086368196684,4.60720096530234,0.1427204872515367,0
-0.7505487845187973,-6.273689597882728,5.054889091981186,-0.09857613953543785,0
-0.2336555836258026,-3.745191200411285,3.6009621991576974,0.11625003313245245,0
-0.1506446887618279,-3.051896373744478,3.176941950872936,0.10158656614589827,0
-0.24517913773906017,-4.4062618628323005,3.6684810911544625,0.02727398375663644,0
-0.3434796305663321,-4.432282966486964,3.575470171919676,-0.11953152564757356,0
-0.4565406555900775,-4.365716624534658,4.332143698737315,0.1227486482832551,0
-0.23680074350534466,-3.723396475922621,3.707041361704195,0.03886434465063481,0
-0.24597900806792228,-4.110943973658474,4.070256334338843,0.10971390179585337,0
-0.58511573052661,-5.43362211300585,4.255924421807526,0.022323735972491186,0
-0.6244014903510913,-5.479602510635099,4.942779593556221,0.12314148896234388,0
-0.3072197443916331,-4.2853788253567355,4.169502931523363,0.059913549683819164,0
-0.5301978771054675,-5.7644246686528655,4.641314167304607,-0.01518822111368293,0
-0.24989527822707724,-4.772144202681396,4.3771190774482305,0.1802884142976727,0
-0.14902667949934778,-3.168097811954753,3.5085774953493676,0.07450081893136727,0
-0.3119953941529073,-5.213746484436555,4.028071931628945,0.06120936324243925,0
-0.54191168115438,-5.420736495245718,4.628959754446361,0.0075990390603476584,0
-0.22704489849099674,-4.179995332938106,4.2785582351485765,0.11577523666504326,0
-0.19957270043483066,-3.4352383650568368,3.3681442806600392,0.2311619330273432,0
-0.5077515483421906,-5.210628348535536,4.339834093228022,0.06564347936565264,0
-0.20421015931133182,-4.2452743758934055,4.530267914024714,0.14960641335495972,0
-0.3184323662472341,-4.15707950537471,4.114434426044086,0.10092871364054021,0
-0.5295071725909711,-5.34373069650845,4.355374171274358,0.03116650688065183,0
-0.19356515181232745,-4.447423678510352,4.914609767936243,0.15964847763166443,0
-0.18174700151811188,-3.5086148431365274,3.734467231578865,0.11033300322489804,0
-0.2942338736019723,-5.3412393198919865,4.344707220313298,0.0923764568098126,0
-0.48458002808799966,-5.419180263961856,4.869459148933549,0.046850728928198034,0
-0.39184823391767565,-4.38262333174915,4.7536834448467875,0.2231996408194985,0
-0.2381797179030337,-3.6325696640120677,4.078355814077934,0.2219269038001283,0
-0.22610275874203967,-4.662209502667688,4.35285840764814,0.1537431641294891,0
-0.38255350377653724,-5.596985773660455,4.478559083086083,-0.033163276131162295,0
-0.5468917223405755,-5.741957148557713,4.989898640014308,0.0280071163645019,0
-0.34096480885366603,-4.258579739162581,4.031564806805445,0.13396947335869142,0
-0.3100587076750763,-4.33657143845268,4.37616379754578,0.14623667811565555,0
-0.5086401035814284,-5.878973077693891,4.675751720119702,-0.03702046845982139,0
-0.3617280579259683,-4.511107599526142,4.812513279561067,0.22117356963479826,0
-0.30342292893709294,-4.205539032810867,4.213836314783928,0.09707453627926062,0
-0.4461345577885438,-5.87845177740003,4.559877590226316,-0.03882262382500716,0
0.04560794046679092,-3.6170234285463727,3.8666620560060982,0.07008415887766344,0
-0.09756090121009635,-3.1124951840498367,3.4365341116346984,0.13833996670463156,0
-0.2059680776732017,-3.167535686987872,3.0206214409190255,0.08554843829498711,0
-0.14557400697614303,-3.3446897588110103,3.44049614622603,0.08345089608105931,0
-0.2583558056605989,-4.6106126872402875,3.742723718093763,-0.05157383775916631,0
-0.39201170206209673,-4.9294694226126445,4.394819442124494,0.0701482660858929,0
-0.19658480096837772,-3.8942887235756247,3.7096169180374945,0.06241242371632744,0
-0.3160509237099755,-5.0208810027471555,3.904800561950842,0.08486919325192242,0
-0.4677912660734194,-4.89823717343876,4.2542754737260395,0.11137006287823784,0
-0.2684345345597651,-3.9592667716473375,3.70016006908444,0.04410420521704746,0
-0.40824250048005023,-5.153802421129109,3.996477508377592,-0.009604426616497203,0
-0.3686823947066496,-4.247539294999999,3.92550034539886,0.19199335225291395,0
-0.2169242942710378,-3.8856097803336356,3.8246267581874474,0.06872225563892018,0
-0.33552496449011576,-5.163119589735716,4.424401291461525,-0.022191748173384176,0
-0.26789593419332064,-4.047599275505531,4.453198276352323,0.2134024535711096,0
-0.17658839455696218,-3.8958680979259555,3.8084105775731976,0.057844829571580846,0
-0.15403667624235845,-5.128928672822708,3.936000435739402,-0.029197673298430166,0
-0.47804299594210464,-5.019023140333179,4.129840504579922,-0.1111241171790375,0
-0.3130076176942263,-5.055405046614105,4.165944746540755,-0.019853703443362482,0
-0.10645043266895865,-3.872535847442502,4.289294293937111,0.14841806658230064,0
-0.10358782390939125,-3.672511337492003,4.264824216353941,0.1604172009393629,0
-0.19222542221708783,-3.73942678805916,3.5539416326077777,0.10621314850583283,0
-0.15446292130012332,-3.3664899228749663,3.409206230405324,0.11091314113597608,0
-0.14584761226034162,-4.170078850825144,3.4221853545387204,0.08767928838244991,0
-0.4005724908105231,-4.621109081212313,3.6300198109511372,-0.0008105267507492631,0
-0.30921386806359713,-4.577235758720542,3.8675729961708907,0.012117130861368683,0
0.013019338059762372,-2.5980065540309267,2.6419450457164046,-0.08001983884135032,0
-0.364485611065733,-4.109482303784802,3.44855009521791,-0.004148111128408684,0
-0.09589555618671049,-3.5221886665133684,3.2635328443341955,0.11211398164322052,0
0.0003662422918175358,-2.7231204774638798,3.049153098741109,0.005929416927501363,0
-0.23705484653676448,-2.9887759967760825,2.8634803576132297,0.11076181004462259,0
-0.15957684180685813,-3.051072414668234,3.0459744585665245,0.04292039472390666,0
-0.37240544042245594,-4.048758476087195,3.4389739843489435,-0.03225175001797347,0
-0.13273456063807518,-3.511484550893068,3.7561360919290214,0.15463486700268234,0
-0.14955741181635765,-3.4161539669826553,3.202450791633687,0.05609527349217575,0
-0.20237858700014635,-4.3952286992006915,3.3857510844899132,-0.05701896015298432,0
-0.17949733499617593,-4.252064534914197,3.227801231304408,-0.11650068780717128,0
0.2017255211034595,-6.185468756714661,5.843993987347219,-0.031873551111035875,0
-0.3551866606225242,-7.355380605096894,6.757276970849439,-0.14144427496711176,0
-0.1170662665998945,-5.423329351924496,5.1742487812732385,0.0337337590760306,0
-0.12956269647676782,-5.56411522014896,5.535868683912003,-0.013896679122491642,0
-0.7498868544816913,-6.396556907002635,6.361095346156372,0.18869464223591745,0
-0.1349699341034072,-6.01221637766117,5.905774525755389,0.07489620121568902,0
-0.552584235353472,-5.456709683799745,5.021250253411378,0.1501956051655259,0
-0.04326410565723123,-3.872132237279132,3.5284526251179624,-0.005587453212950426,0
-0.15050972559298512,-4.1030106406500195,3.9534597335682204,0.007002028457362364,0
-0.027626259599012565,-4.423870882802216,4.005856115709948,-0.0343473403770552,0
-0.19788731311889252,-4.187767403446806,4.459781169707288,0.07601536396021466,0
-0.44974503155500517,-3.923783450344458,3.7924183768076936,0.21950211352259355,0
0.1084903916693893,-3.8042489715487853,3.433155527908415,-0.0563759603191065,0
-0.08294507866853873,-3.3146567920910917,3.284352456141444,-0.22320150494021448,0
0.010623860488422657,-4.415176116905684,4.422090717217985,-0.08174138675653313,0
-0.08380267286203913,-4.386691433327165,4.122894918281945,-0.08788438595386139,0
-0.013002415788892885,-3.239917064220844,3.854329646700383,-0.04200667627793538,0
-0.012117438385721458,-4.394805096077933,4.432178958678609,-0.15879526418780554,0
-0.18785292484637006,-4.484159974185799,5.106193082040642,0.046048748447206835,0
-0.27985190279646366,-5.318979539997024,5.12120334312159,-0.06742363594691014,0
-0.007729711093652965,-4.913744963951224,5.334142423988326,0.11846216466511948,0
-0.30489956225424714,-5.26217842798457,4.984417134693504,0.013665733883653997,0
0.16070429346187437,-4.18848004744659,3.850862764523786,-0.20563105833396372,0
-0.07629498956963299,-3.9680766847410824,4.187967275382833,0.07040650592769493,0
-0.4962669566522771,-7.053074222406204,4.982592128289461,-0.18666562935547965,0
-0.8868953989400999,-6.887446900071323,6.1491931723510795,0.23790949240617548,0
-0.933177853487193,-6.604094026075819,6.100662996515018,0.31202711728517213,0
-0.07100957335844131,-6.5644729327887354,6.166947601032945,-0.09941572983960822,0
-0.0974999708794932,-4.946663582619925,5.092759708900764,-0.04740339937141445,0
-0.19143392447651544,-4.959994753823729,4.892172885655398,-0.014409454430858825,0
-0.12219554423981965,-4.310962128478196,4.47514128009249,-0.0175816892312691,0
-1.1870826429399177,-6.728057790291358,5.081323179930839,0.119924764122532,0
-0.10390963399166749,-5.291103452431764,5.0424773151357165,-0.028166296198300064,0
-0.3535857423737719,-6.423747671825904,5.700912291676641,-0.005654565821575286,0
-0.7529137303570881,-6.359101151342102,5.933463421675115,0.255824553291334,0
-0.8861553066505099,-6.602016358224,5.971926271406041,0.3089125794324265,0
-0.7742209303570577,-6.259265112179217,6.09379569083985,0.28569002349007494,0
-0.6563558893547484,-6.01374375302919,5.62612320986707,0.13255536201205706,0
-0.749001189307242,-6.315042469605693,5.383854340578912,0.042329296938703305,0
-0.3864846588252344,-4.97842977530172,5.169587760574238,0.06467967228202089,0
-0.14161195206583255,-6.572161628332397,5.922394892248852,-0.12968592803137516,0
-0.752115482289644,-7.178690633728877,5.8273995963820076,0.001237082078289013,0
-0.6881593694811151,-5.7120450253664155,6.050590622869345,0.22382383678179027,0
-0.22752138442856232,-5.380828099474968,5.729548486225109,0.07684014818876704,0
-0.9799606526847698,-6.064854811375208,5.486672498391863,0.29843655325684765,0
-0.1758372356325061,-5.346258238145344,5.254606026117292,0.004117356567468192,0
-0.39417004296964236,-5.298257724918212,4.9824148649293445,0.04274423136537744,0
-0.09672644603480918,-5.128118940432688,4.840017738063883,-0.022385377917061647,0
-0.25156124983210754,-5.168821853290732,5.097118830598136,0.1126847141746681,0
-0.26663039851042614,-6.551668452165971,6.115223477947678,0.10796054367949379,0
-0.6653548274690294,-6.557623546765593,6.247602682392179,0.24288671785899507,0
-0.6905736698018976,-6.911521488551733,6.074720604325205,0.1251804192733254,0
-0.4246801966628974,-5.871698001533073,5.7271127286312025,0.07820214086777828,0
-0.6664677534494284,-6.639341294880358,5.663426051906905,0.050680010965195275,0
-0.7557160001345107,-6.6658194142262115,5.234822090057813,0.13977648571357043,0
-0.2968286973880685,-5.654572310177381,6.344141867143437,0.07574516533326023,0
-0.5356459155746448,-6.795794870397897,5.872901724745298,-0.007371538270542867,0
-0.443403336853659,-6.2377544279523285,5.628505391989012,0.13470653561633056,0
-0.8905321099930076,-7.198096419622791,5.754698664075008,0.0874748492391306,0
-0.6588204678368205,-7.723986495617842,5.6898318657618,-0.029393824556424867,0
-0.6832889493413187,-6.006528896245177,5.60215821550583,0.20603322756596384,0
-1.0517022672956942,-7.426969870952906,5.9955081264868975,0.02289727627100355,0
-0.42377660628756564,-6.0580324216099894,5.452849369509201,0.10135766967457953,0
-0.9241964008202626,-7.350850711236712,5.527417306919082,-0.07395286956262484,0
-0.309422313886816,-5.431900574598873,5.444325853938805,-0.014357007505560525,0
-0.37909838661831086,-5.9989690488173695,5.645661876943212,-0.00800517232581423,0
-0.6180461790560785,-6.602499843672306,6.193702194524515,0.10441161797182302,0
-0.18353850116021755,-6.24670326895596,7.070319194576623,0.14887776739157257,0
-0.5336440446077881,-5.9646368316501945,5.670020167917857,0.0652819561427064,0
-0.9763669132767387,-7.416312953461597,5.567472313343448,-0.05040984692717589,0
-0.3920280379504371,-4.891736005774088,5.037145925906484,0.11360065569198259,0
-0.3332058604763853,-5.231026706271199,5.101127189532079,0.11395506765114534,0
-0.41893369187783275,-5.44362997508762,5.3632936861101825,0.12714408377137026,0
-0.8588267270476039,-7.18413487050345,5.938088487343268,0.16591254247631604,0
-0.17527129678063946,-5.405029014033284,5.347713282995781,-0.03054566343153424,0
-0.10745443725876391,-5.185239634905304,5.072307040580268,-0.008418445970358946,0
-0.14521945771690337,-5.4574808382147495,5.191548160346832,-0.011796776480506591,0
-0.286144104348156,-6.432668679917979,5.281692119158189,-0.0560359906904571,0
-0.49625808488919443,-5.853364681106379,5.885162634284066,0.10288462897712988,0
-0.3923651455894972,-6.741308744983984,5.852130799772786,0.02626485374961021,0
-0.7275652427174789,-6.280055164479687,5.95608941729324,0.2568423314964716,0
-0.1891245332732063,-6.052691721675956,5.259334085176574,-0.1300658189836809,0
-0.31444295569248326,-6.0645012971462045,5.611782009179706,0.050945520912558794,0
0.032713736557259517,-5.060682574223922,5.298501234169958,-0.02927352657064809,0
-0.1529784814851421,-5.438049170223578,5.288600764240057,0.0029504362079179162,0
-0.386088277419908,-5.7779269612380135,5.88742184824226,0.039392100704781205,0
-0.07132837017889838,-5.349133658976429,5.087483922826358,0.0006657704249011145,0
-0.05218370749612219,-4.856819340314301,4.989531163599661,0.0082442213775935,0
-0.6519425158036999,-5.264283901291627,5.902493676859362,0.23061151158679985,0
-1.0429891220608443,-6.881471788450369,6.017883375676748,0.2501283432175467,0
-0.6726256407712432,-6.315022400889175,5.885252574332561,0.1671060427004545,0
-1.4447056546784325,-8.181915355873583,5.747417340258769,0.023180959832298044,0
-1.2282174658385827,-7.925203477487373,5.792789808665157,0.01438380230986067,0
-0.44217467393515214,-5.616770438888926,5.574272419813713,0.14279106163501099,0
-0.42054061421347777,-7.040772955298793,5.793756866608218,0.09476115944147559,0
-0.21282227587789523,-5.6459112214739005,5.943939472473113,0.03047832315743586,0
-0.7133579321198921,-6.12702423713398,5.245114656856568,0.10271956285249616,0
-0.49974941850318627,-6.015879513507703,5.401856246953799,0.16268668426532762,0
-0.7903398373336964,-6.265585443119425,5.508896955856192,0.2560118688948489,0
-0.4220142169050591,-5.574710372983146,5.606914327772758,0.09264801838701481,0
-0.20571327227547265,-5.719138467353343,6.599653551433942,0.16951061143761995,0
-0.43599914335088846,-5.405317090012057,4.926727786283456,0.11162553914547853,0
-0.1961410007719446,-4.815439314966692,4.427017269274001,0.019752354260513905,0
-0.16507845896864917,-5.970631377481071,5.958395832918674,0.009491847776340774,0
-0.34912153944002755,-6.004386966331513,5.2039588764272615,0.03944775277314153,0
-0.6284430169904388,-6.83949570323652,6.415623850486003,-0.02250902771224665,0
-0.2730573894373128,-4.684808953314357,3.8254934683407553,0.08737044246040702,0
-0.2429765956661262,-3.388447786021891,3.341495487285292,0.06960218288543316,0
-0.06565416162550224,-3.3308483211480246,3.1171983355344435,0.0043903629599222225,0
0.0271037597052735,-4.3674583251076005,3.8867049094890005,0.0057460469118854746,0
-0.049038341859125985,-5.639559219525527,5.532019439614219,-0.004700560760644604,0
-0.27995659043360943,-4.141716271267195,4.127619968695723,0.1706424576775088,0
-0.08706292120738057,-3.9593432193168354,3.8711414965236677,-0.058388940652433885,0
-0.1328306809511677,-4.338450784845266,4.164765338980067,-0.11028287615149361,0
-0.19662308701106687,-4.410389456490514,3.8100168581194884,-0.13932367458311237,0
-0.06872950702230071,-3.2614063788325653,3.3254183137754474,-0.006261350191651806,0
-0.21926108120139917,-3.63736541655767,3.5292571413262204,-0.004515833905329385,0
-0.3006609497764772,-5.380547141891528,3.8009549958488194,-0.4099794951230861,0
0.11913445055424099,-5.266922978365612,6.595534107749099,0.5425150518536068,0
0.1310215655720919,-4.808593711247918,4.422949141793416,-0.1269574211729834,0
-0.5894304513034266,-5.914263400801559,4.926752986270424,-0.016936973522876382,0
-0.037345672132279496,-5.303500058038298,3.8507768364565367,-0.31028427542960463,0
-0.07525710688966404,-4.612206336312184,4.149233655768301,-0.021170484355821622,0
0.17584972661427742,-4.96733536704886,5.866302015340397,0.24138879578493244,0
-0.20495300729918417,-4.380261396106656,4.366685440086133,0.10829175631125855,0
0.25319498241278643,-4.830234842236036,4.296739854153165,-0.19627013495192058,0
0.24486559172372888,-4.489530111729504,4.176838591463824,-0.12492911882825901,0
0.008581726660233232,-4.260769868519749,4.013957392252168,0.0132317300582519,0
0.24444637232276242,-4.837481482779386,4.484918756378916,-0.05463934951831952,0
-0.4115476332788617,-5.538909972851895,4.894874687949819,-0.06190623285953164,0
0.027160998901310712,-4.322442585223665,4.0224538163629004,-0.15031307229306115,0
-0.09663095741799015,-3.310995209341474,3.5859483842295665,-0.06707322592473722,0
-0.2031979339566874,-3.8348704762666683,3.883696863157892,0.048771447351047645,0
-0.21671493926284613,-4.23254982636286,4.075602704184673,-0.0031213412666088562,0
0.020508873408990408,-4.804741424797655,3.682175660061235,-0.14487118447875558,0
-0.16829729209024055,-4.8454678957214234,3.353289670339098,-0.2625656690126487,0
0.018299025966334388,-3.000822179870072,2.9948748672999663,-0.0696081490872048,0
-0.1989683024793071,-3.245258863550289,3.220021665156554,-0.00431172000817256,0
0.0331427634979801,-3.369907963533703,3.168779752203825,-0.20933650797189793,0
-0.03546072701518541,-3.8464435410866895,3.4674824545144043,0.06570670569130388,0
-0.04442868193643044,-3.620081797235069,3.548802352446269,0.01533078627747476,0
-0.07916281101554268,-3.471439601932928,3.4775052236576105,0.11473823970766987,0
-0.046855037876217566,-2.9656400312582463,3.2391413670428917,0.1081802852459165,0
0.004398602879791417,-3.2834224271820998,2.997747412205278,-0.09455137010288396,0
0.011146194377494667,-3.3184294132114864,3.438755962447552,-0.07738655101096312,0
-0.22009812336066947,-4.024741994479225,4.407155728880341,0.056681369884174625,0
-0.11999408005091472,-5.571795455496597,4.958187132873056,-0.010001493266638128,0
-0.12049136368306697,-4.446272834920012,4.53789470889385,-0.024210579706133724,0
-0.10522455767648235,-3.903761823540952,4.305903439018174,0.04165877818332044,0
-0.19044639724916412,-3.7380765605091844,3.729892150159162,0.030050579098327545,0
0.099326563680519,-3.867584821799897,3.6935383382420914,-0.08382890008712855,0
0.01750298320279406,-4.632225912822433,4.258747700257013,-0.03776005671230235,0
0.041092304514161127,-4.171865945662914,4.151402496693974,-0.16952236190755918,0
-0.43295354521995977,-6.138158007044664,5.2375770276723745,-0.28188347271414443,0
-0.08643214236467762,-3.6228985576790995,3.9871737734460613,-0.2060770723689282,0
-0.05830706043716218,-5.415538186157606,4.9366493643554445,0.09722561696919672,0
-0.2319825333663346,-4.553923756408166,4.150044030442775,-0.08057418105692657,0
0.044113535985226625,-4.297428361558261,4.260780836253169,-0.10786225077014844,0
-0.027746034696314054,-4.92961317002197,4.688347430413226,-0.0472305236031233,0
-0.06449895773145192,-5.509158704839237,4.984677003824144,0.0842193430212245,0
-0.053816505805963775,-4.703501742478682,5.046072426089651,0.08161752800116423,0
-0.3715064003066273,-5.943973897719322,5.5285669489261,-0.20572951117625293,0
-0.15187057338971302,-3.798112736005371,3.9738912163949687,0.08844909816289162,0
-0.05773388920149417,-4.333344943653955,3.867485236519957,0.08372453007226927,0
-0.3219093912943445,-4.292554876388855,3.6772699550442214,0.07329373498574678,0
-0.25943318132577464,-3.813648388147725,3.6900644199205526,0.1537844456180593,0
-0.47179852269200967,-4.303057365591718,3.822777911656838,0.18936058349614518,0
0.19399532554547763,-4.195866578008149,4.984975520936506,0.28209972967185515,0
-0.07473419534864166,-4.634209988123536,4.586356953512793,-0.10158902789093213,0
-0.12250296517764107,-4.539118102122508,4.412643985716944,-0.03307337626580734,0
0.07133114845196113,-5.4763880500534015,4.991725532365353,-0.17586459488839642,0
-0.12677831421351968,-4.708372713432474,4.3783034159910965,-0.04740482360872079,0
-0.5363965854786764,-5.992918562593406,4.674297607617184,0.07055890083459113,0
0.15176524651921336,-3.6494667234737275,4.036319088773508,0.022130293083508962,0
0.06807796078615798,-3.406191783719141,3.218142953829926,-0.08090066676252126,0
-0.5232285950208966,-4.717279312333952,4.552720882899028,0.19634691886333774,0
-0.32777991080268004,-5.111164416409958,4.394742516151048,0.09536540074022097,0
-0.11877983045025091,-4.433561760887402,4.04640312509617,0.08779297033978463,0
-0.3784188699973679,-4.293770297645922,3.7364249679184973,0.0006528095769071177,0
-0.09764758719837756,-3.9369742986366756,3.4264058543959783,0.06035718505753041,0
-0.08798544788508574,-2.9165525658458153,2.9969425433588146,0.005143221351493308,0
-0.32502337041216955,-3.12844392027951,3.465676116068386,0.22414402705179712,0
-0.16546021272513345,-3.3129589989029524,3.2373182053600433,0.03865927711687567,0
-0.04672377852041035,-3.75479857513155,3.6753727797311857,-0.037140365417990366,0
-0.08900003370306216,-4.814332692034135,4.427606895053594,-0.05646707243837388,0
-0.783701945992521,-5.406654943141655,4.451162924621679,0.10538891603849035,0
0.18825483613040014,-4.557103478930586,5.399856718819596,0.23520580800000035,0
0.03222916682482368,-3.7603335546646997,3.8314969396668017,-0.16764026552916644,0
0.1441481700825874,-4.623473572564575,4.265615450542416,-0.12894899445880137,0
-0.060384395549583546,-4.603412028479886,4.311563539139295,-0.03454861992996933,0
-0.12617175985148874,-3.7821172011616877,3.6066431977071627,-0.017219316548038502,0
-0.023542708636155707,-4.4302289811140385,4.226142372749437,-0.109815888988491,0
0.007858592651478147,-5.358209009385877,4.760021951545253,0.0048672447555384605,0
-0.07293723015431032,-5.07938148816797,5.0072515461582165,0.03347569682937209,0
-0.052130971917339924,-4.3021164443668685,4.254094923562352,-0.06043611976789273,0
-0.496410478069005,-5.5633826890686855,4.844166878751375,-0.04233698407462294,0
-0.10361564034745326,-4.321705488993077,4.173470311273048,-0.04347280553256396,0
0.03466317312016506,-3.6812699368986888,3.959613660546921,0.024528340584584817,0
-0.13512432813922,-4.1307577732339364,4.3692963430085605,0.008499662069383511,0
-0.03536176160732766,-4.366464775746155,4.385894575822746,-0.027921221348553665,0
-0.0011456742376934166,-0.13550555686408955,0.13020087372680272,-0.06547969578250278,0
-0.0054553548024799765,-0.2853750868187934,0.2797218192201041,-0.22550912416516194,0
-0.00029401987167237384,-0.23254414403695467,0.3030953007753982,0.33582828411562843,0
-0.0009046452983922758,-0.17665651791120254,0.16134241489241102,0.14001577912057545,0
-0.0005314126336274164,-0.33542720051963165,0.458365007915821,0.5429335388457808,0
0.0015678949060533647,-0.17130702882614435,0.17554635594596135,0.18163808324244157,0
-0.009817756123354063,-0.24846432003474062,0.2720257644974279,0.15032610986952635,0
0.005166234707622172,-0.42119594354554574,0.534383871595139,0.264988351933302,0
-0.0023737301018023327,-0.27061044072591844,0.4211684141756007,0.7371007059999455,0
0.011435030637266528,-0.30886318524314604,0.2601508605813022,-0.18666829505472265,0
-0.00525167323460447,-0.6327877844318666,0.48811455211032584,-0.47787109691035173,0
-0.0009455732849079796,-0.32688425526499876,0.2326262393701643,-0.6700687316603231,0
-0.006885680807059179,-0.3768562157618515,0.30394071374848697,-0.2682113375967222,0
-0.023755079132387464,-0.640153476040231,0.7218067124984986,0.34559094570373733,0
0.0018950791496662714,-0.27068832553414274,0.2546220255070485,-0.22606066104533515,0
0.006843026741745736,-0.4267973945347886,0.5211263951793541,0.28114000191390354,0
0.0007240031436023253,-0.3857839324880395,0.415243580627576,0.14950155612694987,0
-0.003822960452899102,-0.2717291124804334,0.25470829984002896,-0.23044819600271013,0
0.0006772014233133065,-0.14077221244393254,0.19673150564584163,0.5083600096509869,0
-0.00010684599205009811,-0.25845253877356633,0.2497728037004486,-0.1397616388338052,0
-0.00033273127457607386,-0.39690135806956883,0.40880586659713003,0.08207330613944701,0
0.006554032854299008,-0.5365280649405688,0.6201870423299288,0.8143744886536844,0
0.00807915816987404,-0.34364768533458845,0.3538115735302947,0.2985565019261532,0
0.0018108428521730329,-0.15282226460929665,0.1765469758788601,0.08953820582086755,0
-0.0027424109188408153,-0.3784484869302073,0.36764863749024335,-0.15497301221646723,0
0.006276536201700207,-0.31827656593912235,0.271368832432501,-0.1281168721294299,0
-0.003975802240182604,-0.5717865886142706,0.49571327552380035,-0.9024164882991269,0
-0.0012615440116828787,-0.23340764224143407,0.1538566643196259,-0.7654735741489513,0
-0.0011600411368704463,-0.2626084919617604,0.2681378386079752,-0.06404041474292986,0
0.0006636457416018534,-0.32905409421559345,0.40773035391295065,0.056151634270955646,0
-0.002052624067283192,-0.16547319488160211,0.21715761962796595,0.05683600475397621,0
-0.0029544715918579357,-0.5235761371076394,0.5304488879917479,0.05556507097619056,0
0.0057717371627587595,-0.3442204466707579,0.3434855103082947,-0.15194629634356668,0
-0.008194336922959686,-0.39810930910265574,0.4453572992532597,-0.4197566365740022,0
-0.001370898127109182,-0.37697832225541006,0.39227000193199046,0.3184760323815929,0
-0.0071905784145310575,-0.2943686591801148,0.31362403375289527,-0.25876492056012335,0
-0.0036699075370302567,-0.47344530407947805,0.4694677092447121,0.01269700416186517,0
-0.00016890481226041845,-0.6568677253669732,0.7541816528010512,-0.005172230544058482,0
-0.0042895184048294226,-0.2085860887308082,0.23771058381261,0.1494467784607885,0
0.05408903937568965,-0.6320473420497922,1.1807989104420813,1.274280754447413,0
0.08793049499290995,-0.9729644178172727,1.6080605493084144,0.7949010335776608,0
-0.00017379265238226063,-0.7694238351558791,0.791544889632916,0.5623992488226477,0
0.14771246749398242,-0.8486665390670685,2.0799773158120787,1.7780355454351149,0
-0.01140608461129568,-0.5876664354640068,0.6836310570527779,0.425958045720099,0
0.004595931687061755,-0.345512459375623,0.37548868401449653,0.051040745567504674,0
0.006622483374014883,-0.3598153935965481,0.4094032377682627,0.2762872148688953,0
-0.0075756072129617505,-0.3507124260536819,0.3846762137129893,0.018604812674929156,0
0.00642620447981833,-0.5400771564836173,0.7356504320431121,0.7508118454542477,0
-0.006848378225646775,-0.5366503641417969,0.46429975486957564,-0.38508981069439846,0
-0.0003803081137442757,-0.3248982161269699,0.31452506489534304,0.09973921669980292,0
0.005004229962103258,-0.5955218017372372,0.83983547800372,1.2010997232089564,0
0.00781453664657735,-0.47260997064427823,0.360366497449146,-0.17695406035643552,0
-0.0007627948099338628,-0.3170413154247004,0.3046968812692282,0.01690499122625099,0
-0.002880243491380922,-0.612134832724178,0.5748317425769738,-0.027227209679065386,0
0.02629182175297474,-0.6970011518922157,0.6511540272055348,0.1557761372537982,0
-0.012349342136322066,-0.5711182873535843,0.7209329377476899,0.27511364309682523,0
0.027271622166306853,-1.08997217195592,1.1976948179332938,0.1441839939255867,0
0.00947142825330459,-0.649721988521763,0.7232453799222278,0.13360075849142483,0
0.04126343882343743,-0.8443557533848696,0.7834380217717765,0.053104519047504024,0
0.14023722609605105,-1.620109038792938,2.6430225555693108,0.9586715212161517,0
0.051492166362407686,-1.1312040423754834,0.989818508317077,-0.043903646163755625,0
0.00014451303102384905,-0.8336304679205693,0.807922318499473,0.061731081878874106,0
0.03076689492471132,-1.2951157644097877,1.3502241780259367,0.24256312996613325,0
0.046221282647974204,-0.9701826859898135,1.0135156048743914,-0.029345036243452714,0
-0.43241402858266226,-2.7766492817819177,2.770612936583582,0.4573863690868392,0
-0.6197535769136416,-4.947834136438279,2.5921071607135797,-0.9366921180309329,0
0.5909125652568793,-2.1129740838211486,4.537267459150922,1.155177325612664,0
-0.20862285509320308,-2.75719675288182,2.7584975942743606,0.2160741234030137,0
-0.3013788210910035,-2.8952498105323388,2.908126027078414,0.295918171120686,0
0.011571843913765381,-1.2521258329014124,1.4199290367288981,0.48042564211847766,0
-0.44838886222241614,-2.9319525057157825,2.9584659001151405,0.3614412916786103,0
-0.019786708052621064,-1.0040470259748226,0.9429318867399434,-0.33225782245782187,0
-0.5546695166441965,-4.167433138185821,2.797319681676198,-0.7928547868733355,0
0.05417117274796827,-1.0545156593331653,0.9984674106005111,0.5151498880674311,0
-0.003939890536775035,-0.2995630580740069,0.2607283295996509,-0.18646692965020276,0
-0.00682181009757133,-0.5202947776622697,0.6818759285496617,0.16531870412959646,0
0.015235979619047763,-0.6749507579342231,0.6584412718754751,0.09133818955372906,0
-0.21518437669543,-3.3261162814073435,1.8592960991311243,-1.0187974335160368,0
0.01527007447804631,-0.963969270785314,1.0312315139775583,0.0773395885064099,0
-0.005373017058026664,-0.5774875596496517,0.6812068798319184,-0.07527493889223134,0
-0.1700414168646431,-2.5347493359853113,2.5685526171433395,0.19283993249586992,0
0.01231530252071091,-0.7468747482711927,0.8099713415836609,0.15439521755399038,0
0.004258979218269351,-0.8520598335439507,1.0463051938368961,0.1490942782296014,0
0.018813873866133545,-1.6298620012593004,1.388892944436876,-0.3429309655740989,0
0.26895796152036583,-2.098143758923512,3.680978560824003,1.2335064189568747,0
0.011447237400311538,-0.9842612652943068,1.1142604689461328,0.25552219481385785,0
-0.191411557354945,-2.6428745407559933,2.6573621403034826,0.21723730714907133,0
0.3805595007115726,-3.23757674675194,4.636192547967898,0.6517123183258301,0
-0.4932887384879612,-3.016527381533577,2.8759463673168013,0.4593554823693568,0
0.4853255392349825,-2.4453190793901043,4.845372482128434,1.3511123841443045,0
-0.11516347730553604,-2.6329493610584596,2.6377720148941757,0.12518489794141904,0
-0.4856280858081718,-5.337302478044819,3.192332558098319,-1.0420451353714306,0
-0.07764490906806977,-2.8183457553069617,2.8357808795437034,0.1596313960447105,0
0.2901577468590955,-2.3949186633619233,4.455471570770584,1.1502393548004197,0
0.10983101666925045,-1.4512553521912475,1.6308112130227497,0.3639170699180179,0
0.034683893398719016,-0.9417317773985707,0.9900052053875544,0.48363110921870034,0
0.005142642481245915,-0.5515053405414199,0.5728148934720863,0.14407772591605245,0
0.0027709557310115125,-0.5581627299997001,0.774275126125239,0.47347063021492464,0
0.0348810350210397,-1.118327788412523,1.4682198983249792,0.47339638085015356,0
0.021717306047082118,-0.7214635947437471,0.6491046102731908,-0.21551735463551916,0
-0.00339467203301577,-1.4023905166803567,1.0365066943548111,-0.4949099940489883,0
0.14821654157190536,-1.3113140630277869,2.0825696167304777,1.204584191848421,0
-0.01634907341348472,-3.234650633024544,3.6030901031380527,0.11731478384367032,0
-0.4733094541940582,-3.207072942912842,3.2005574904486624,0.3870124980446118,0
-0.5560435202474135,-3.441469831763491,3.355535828749934,0.41980073066227214,0
0.8806119051285523,-2.892146564517512,6.938172938309696,1.2991186740772083,0
-0.48986841581843416,-5.481806038930964,2.0377732034265623,-1.8327225079913871,0
-0.003320649398026306,-1.5801785896889589,1.7269375728679315,-0.046399588623198096,0
0.5393397625485984,-3.41020872653611,7.5078530645151655,0.796824812665884,0
-0.47446909625286454,-5.524528473035755,2.9549277171828416,-1.1042492601419072,0
-1.1549948271482615,-8.350996357323382,3.0830712942382235,-1.1682094177849955,0
0.2660130645919931,-3.6015126482337103,5.458203871793487,0.6518016726727635,0
-0.6452989053331147,-3.4293588291723696,3.420352802808238,0.561875004228887,0
0.20428682128678047,-2.343248039333772,2.702504985914071,0.23948578174205618,0
-0.7006489089594613,-6.058292147645156,3.797491318496009,-0.2563260053697938,0
0.0030205797199444897,-1.8016735834945354,1.7600077350839887,-0.08051062954537921,0
0.0651306908092005,-1.189252248183533,1.094575504073386,-0.25566082831993175,0
-0.13081036715922245,-3.2951150748741043,3.2269309175923246,-0.008647883827175221,0
-0.48564849098524965,-3.2188363998148453,3.2308852535907078,0.4448824447806969,0
0.4476889506201951,-2.9157473584690337,6.381361696929769,1.3163956371616594,0
-0.2677508481680217,-3.8328013091454665,4.063216154929911,0.16129293141849166,0
0.09414765681674703,-1.9666860768642334,2.2015486633950827,0.12322664618666695,0
0.054416764446630524,-1.4269777144961857,1.4854626202691856,0.07461229284485886,0
-0.6314204389949252,-5.522879943693377,3.5637379852565427,-0.11025414236509565,0
0.01337199490146715,-2.4039193129070657,2.159242188409728,0.02419862111313728,0
0.02782454194703896,-2.069798484613294,2.0439966402655028,0.24068264437934608,0
0.001940355604823622,-2.974299217584078,3.1062412373896855,0.04067200485629468,0
0.048406972055515106,-3.0077976545925837,2.4991817771037486,-0.3155751055829149,0
0.021583659527473587,-1.6843083567506056,1.7931746329454794,0.24034003016731995,0
0.02381853530617098,-1.5861885758065377,1.7610535656189699,-0.00031650933418487566,0
0.20851728122882998,-1.6646316894762627,1.6792693855414673,-0.26031192650983764,0
-0.48995373651432894,-3.48741044007837,3.4819094270581448,0.3512437009177736,0
-0.636099643497015,-3.470240230600215,3.4841857359744797,0.5418708946152091,0
-0.602333962327407,-3.3721456792570828,3.3583149345354455,0.4879010183550313,0
-0.2795199515708307,-4.40357702456625,2.294581657936281,-1.089125401631023,0
0.19741233300093616,-2.472201351541128,3.4456917446610595,0.5374556965388368,0
0.026321134223411233,-1.0104162758226858,1.1790174154166677,0.3492812850880734,0
-0.0017953781675133437,-1.7100215581244096,1.346772103093047,-0.4800231622441992,0
-0.1812997456910741,-2.7803169573552124,2.7892491271464728,0.16393539463573475,0
0.04383613002217993,-3.018556485620513,3.005192227932798,-0.012671663333762156,0
-0.5378188499274651,-3.3162017365571987,3.359592592653764,0.4768565523125755,0
-0.08145539235788625,-3.2907785644821197,3.2907415530711197,0.10242573283375274,0
-0.3104193463025444,-2.9464271540530285,2.9637628701837473,0.37226925042049724,0
0.06016149226364322,-1.5503777228420859,1.3835581833218242,-0.23731128418627923,0
0.044201931362749795,-1.5958002083277574,1.569611896726001,0.054415123682152816,0
-0.25353459136819867,-3.3303495825781946,3.3645450419569523,0.2672709180664193,0
-0.2884038248594234,-3.6914232372390696,3.036544067955974,0.1159155172890861,0
-0.00559138157472603,-0.8997541645926179,0.9775027945726786,0.051155359907278194,0
0.014101982907468178,-0.85134753998499,0.8132833438904988,0.009575165054100143,0
0.025497166519395528,-0.9224553938177796,0.9676037316815344,0.20102410490801664,0
-0.31637055173093914,-3.005128664548687,3.0412092106558233,0.3302535682024029,0
0.040760822302136436,-2.040040746023435,2.4054585778221282,0.09419922353832369,0
0.008292246770092552,-0.6343066819752667,0.6736696353242804,-0.18592099683438976,0
0.010303148379342748,-0.5684883676504766,0.6194149475127102,-0.053793718002877584,0
0.09738206021843032,-0.9560407666948697,1.0216865965742692,-0.18364337849382106,0
-0.02528640911230809,-1.5602879855517258,1.0735277188291508,-0.7385410412189172,0
0.29206892824680303,-1.4237178019675762,2.62792034362913,1.4499467132708983,0
-0.017878195720743974,-0.8001078945171365,0.6794458436690194,-0.19969589087119596,0
-0.3590165421562171,-2.5098590875732776,2.4527102357424617,0.39958258549856324,0
0.4985562319650047,-2.09750614793384,4.128795598202288,1.2152555369468416,0
-0.24135648427129183,-2.8549620703685736,2.8494087412429163,0.2635439367262292,0
-0.6071059595120355,-4.969457178079548,3.464693088178751,-0.17585171910018113,0
-0.5988978516226905,-3.297213119786263,3.300411612115885,0.4597411151742329,0
0.012587962971028674,-1.2507399750268813,1.3752607960216592,0.04045146582778991,0
0.07756828280864782,-1.2423090810065198,1.2298175926167292,-0.014798060289275933,0
-0.6073961827324265,-4.500863743329409,3.711955253377613,-0.02964942432798367,0
0.08426215003031116,-1.1435390658296276,1.187975116462336,0.43223799967276355,0
0.09817292568196419,-1.531369131115659,2.0878043094237806,0.560773246631968,0
0.1999344132023767,-1.649601659239221,2.871397975469846,1.0175896278909364,0
-0.3749505696451756,-3.093060065681572,3.09263743885633,0.3990700416727368,0
0.13869392812133982,-2.3632106489101274,2.5823443568831594,0.17034351733538342,0
-0.20954974220326936,-3.3005608417009844,3.3068059562205288,0.2216922536036471,0
-0.4716996647644171,-3.1070009692954867,3.0861443388738596,0.4059386716745051,0
0.06463949797820008,-1.7463176653972339,1.7246697355059153,0.10591020088170881,0
-0.24874723279876187,-2.5227565781323964,2.5205557906320535,0.28273973887834936,0
0.027499501809794158,-3.0069126222673175,3.0063837229177737,0.022020139937840542,0
-0.4815950157436098,-3.316728681628307,3.316879923954456,0.45572425546125384,0
-0.6396847033684319,-3.3694049145674123,3.339376252543362,0.515887067361953,0
-0.2913341017726169,-3.485327810837614,3.4930852997104562,0.2502153264302951,0
-0.6574545438880007,-3.37909147320579,3.3829835189904403,0.5612962052461921,0
-0.44093557925132504,-3.3416461732169385,3.346515230087885,0.35212223426526795,0
0.2506752941582265,-2.6775240672106593,4.415778760479759,1.0096494177454265,0
0.093642490773024,-2.351193982920206,2.0177110610417017,-0.2661921960047067,0
0.09289843393545645,-1.9617336531349818,1.8204814470583313,-0.14087505022889674,0
0.1982241254689511,-1.669792164972201,3.4271461879884457,1.599789358720697,0
-0.021142721373862847,-0.432074419037875,0.525664416812393,0.36419146614464154,0
-0.0006776463773420123,-0.36372956276925084,0.4859340401883433,0.7245095460712757,0
0.02018831510699653,-0.544962017469438,0.780516010509714,0.9731296696232771,0
0.023827099000995004,-0.789060273793742,0.8669762969807581,0.166914325387314,0
0.03935587765339527,-2.576237683398693,2.5795212907192555,0.011346478509860838,0
-0.25077526656183036,-2.6959120297952985,2.694721012396846,0.2937599453757047,0
-0.41694441481695854,-2.699404125485025,2.6998524602173397,0.4249478004519178,0
-0.05002056246390472,-2.617966130099,2.623290635507044,0.0999123760277673,0
0.06689460600568631,-1.409699116654367,1.7117308143211747,0.3487837016118389,0
0.2581363009391678,-2.618392878187893,4.951896827800986,1.4514645776295623,0
0.024180867488495256,-0.9994213582617612,0.9023926487225244,0.35447501455324454,0
0.0014495452897231337,-1.4087668362057244,0.9800324641728559,-0.5469086092401797,0
-0.5660784907913788,-5.092853105909553,2.251353336332741,-1.1570489834706843,0
0.054647990864533695,-1.1263551600614365,1.1823140106377452,-0.00821025364415678,0
-0.29521579594434955,-2.80760625558944,2.810630775724455,0.3354343909337014,0
-0.044535705317059776,-2.543942150417518,1.959982660345492,-0.24187962707063987,0
-0.5803611643680563,-3.5434943690083704,3.533578216527661,0.2551670924075944,0
-0.38179690619429324,-2.9730465361731517,2.865809393231629,0.26810195774460027,0
-0.19403195699429845,-2.4640224335726906,2.1205694968987188,0.011021079748290035,0
-0.014043623804163291,-1.9191418287855728,1.8974894417082082,0.0007754104673410705,0
-0.2348154057187882,-2.76939688330969,2.871582910901254,0.3767327180837118,0
-0.25995710114708676,-2.579625254860209,2.2494908749392875,0.08854589447023455,0
0.044547052106270836,-2.089617903941333,1.9342011281516178,-0.07796829858624914,0
-0.19854189296566535,-2.786059326875795,2.475352887858887,0.1929947121585863,0
-0.15360004861948753,-2.9102146352611804,3.3375255529954617,0.2763014522009735,0
-0.2905189541097081,-3.2663879289971414,2.8877697537371514,0.07905818096375448,0
-0.20734694924921948,-2.6414059620722936,2.301268629006306,0.06405614781965248,0
-0.18703938994140976,-3.028889528401881,3.1442277202078914,0.10555160836041817,0
-0.2343433453414683,-2.8301966928985616,2.5730220183404424,0.13647599251218373,0
-0.0734715147401928,-2.6424024359138,2.54514974662145,0.017350018437474062,0
-0.08520342297081496,-2.9428771224904997,2.728162463725884,0.14720924523608567,0
-0.29295885992095483,-2.7562596937655046,2.482571928355319,0.1359922693487661,0
-0.0597041654984728,-2.2044476774372472,2.064066505223467,-0.016107426011918436,0
0.08896315448557589,-2.214806424714639,3.0504241119226365,0.27803395253533164,0
-0.3528951659235204,-2.879026500488044,3.270962827341944,0.3314777347505601,0
-0.2761021747169945,-2.8480059995643607,2.7227607523958346,0.043592771435406144,0
-0.11340124141276724,-2.915718127573346,3.739000111943552,0.33263295303513113,0
-0.3717794212408694,-3.072880852535837,3.0735385916142484,0.23691567723434437,0
-0.25419864235182427,-2.8526524653514223,2.7263047545991124,0.2031406980687314,0
-0.20200086372056125,-3.079580747576347,3.300991156573128,0.2556012064681659,0
-0.3304707944584433,-2.9780831835769854,2.4133255638421867,-0.011033118958237383,0
-0.36244528142264015,-3.1382937466308793,3.2788716464928207,0.31475051489896805,0
-0.3212714045893606,-2.783292711459608,2.6457463692063508,0.26033384913475427,0
-0.30299557163267016,-3.0823661249713052,2.6929531834872407,0.10044514906036517,0
-0.10833612263726687,-2.729569716066766,2.619286943713922,0.020759211515513732,0
-0.6448417425439364,-3.6851733059700496,2.985668063794414,0.1642012071359473,0
-0.009879399660501442,-2.523003257292596,2.73363582158769,0.03950884254470557,0
-0.3275950978455228,-3.3397830060621154,2.740877234052941,0.08498283701804406,0
-0.4516826112510522,-3.086102488556537,3.339235891564067,0.32488479951787025,0
-0.4455728103149999,-3.0316016295942902,3.328774240589347,0.33439814798157824,0
-0.11680899846289523,-3.07973027381918,2.7334461670979273,-0.06970798378771327,0
-0.1947570868834513,-2.651707255878306,2.4405316988143424,0.08083259870491583,0
-0.5788465508653048,-3.4102015128531216,2.8044552309544457,0.24134699837217016,0
-0.35052764068720427,-3.162799231504451,2.907617134572827,0.2646952230909279,0
-0.17910404304819605,-3.2305429571464344,3.160632397869416,0.1629697861626086,0
-0.0510685217122212,-2.4989807601610368,2.4450714492607806,-0.03681279512195443,0
-0.1312342554939452,-2.777516716755721,3.0542770612803496,0.1152210474517825,0
-0.47633726750856925,-3.0451660027983705,2.731676700811148,0.21614304294473566,0
-0.2301841247196926,-2.9008629538432795,2.690308354539699,0.0722998616627488,0
-0.07457575659863515,-2.8516203412626036,2.7733976679064662,-0.025189547204606835,0
0.004863397719399333,-2.4218711449342045,2.5946100374862366,0.106453774769091,0
-0.26058381523797247,-3.254693077105996,3.3653439742575593,0.19787087070642917,0
-0.46753415354825917,-3.114082495372635,3.2865115994523846,0.3668576494276956,0
-0.23844960254620604,-3.0308898000091147,3.0164547593734934,0.105430489476595,0
-0.015255098039119841,-2.5179295306717977,2.4217145925445633,0.0370054729231512,0
-0.41854227770631347,-3.3488719416642723,3.442209125090007,0.2601598958064941,0
-0.4640373668768418,-3.4008587343541086,3.059206427864173,0.22804304296495395,0
-0.27769569367884017,-3.385408818075067,3.309533282084286,0.23299928532932204,0
-0.46844960139248576,-3.4159660557376785,2.7559323539602625,-0.00854971683951362,0
-0.09762388773234089,-3.2627679047837743,2.7904570712486283,-0.1283734006767088,0
-0.31945524418749843,-3.158244538676426,3.5199693154625384,0.25992638765555565,0
-0.011607758734650317,-2.808616738934461,3.0246997253555055,0.13218025426234867,0
-0.5933426440315954,-3.9322574484543815,3.073640876859421,0.13049746538661228,0
-0.38246713713198016,-3.258259779635008,3.0736459835703864,0.1785878285368988,0
-0.25876335659947314,-3.394442053091003,3.607246427796275,0.32349116984584114,0
-0.40748222392978306,-3.6405772141925743,2.939208930421799,0.03169277133594769,0
-0.44724802382195455,-3.8623702288057746,3.6113716917964114,0.28131808681093184,0
-0.22622337053473743,-2.9816068112832506,2.99081466598372,0.10961045603896911,0
-0.1914230736908189,-3.0232007185230554,2.7513365553053926,0.025884066211655985,0
-0.375564109789049,-3.0514311876681104,2.9129851205882193,0.1932794850739768,0
-0.12212171111778285,-2.8207620334270422,2.7865803063556753,0.0187420621474503,0
-0.49684173001305937,-3.899453164158011,3.2443558316587433,0.29882510076408997,0
-0.424046594739961,-3.5036904690384083,3.165754649544895,0.1993919111654059,0
-0.30944200947369066,-3.388040208497328,3.42122827925361,0.25150427817664583,0
0.06614240766426686,-2.7197058318161167,2.6574156015976356,-0.09922773357222486,0
0.02736277928030373,-3.81848274603479,3.3440116777342945,-0.05209433563757525,0
-0.31969813556411436,-3.2387840095596823,2.948405459031542,0.15162073053379763,0
-0.3987688084771012,-3.779681195081759,3.9765324231678125,0.21352688755905086,0
-0.600581806863311,-3.7979599647789772,3.5303581361372327,0.3237099596096742,0
0.0442066141759963,-3.791174497038436,5.120696537729652,0.27526107633289326,0
-0.5145379539753528,-3.9528668701982275,3.2720936731350365,0.07591901517598813,0
-0.3838891978382772,-4.174373229356029,3.8292710066256435,0.17812683491316877,0
-0.4515543686980253,-3.646507450942586,3.3159021103784836,0.20043869689374735,0
-0.041680610851555326,-3.028489018436776,2.829071944237433,0.026636000326803962,0
-0.31987733200340135,-3.253368736940677,3.1067550494208986,0.20108911361027232,0
-0.3588867234788853,-3.796632651662523,3.8761971575498237,0.1831372629843413,0
-0.458047033199717,-3.6080315627363633,3.3872024785453965,0.19976566109306357,0
-0.39803935733729584,-4.380455078643389,3.796402344473255,-0.16545234427450836,0
-0.3380918332471691,-4.5101559465528185,3.778870882474698,0.13238705419329427,0
-0.3446869034585414,-3.7378289385217096,3.4053771165462923,0.12958169932769162,0
-0.38876283297636166,-4.307852329628595,3.709512091470158,0.05057269035190211,0
-0.3429231351836927,-3.6008995323275377,3.407346828828917,0.27172816359059104,0
-0.4454009508966846,-4.082944200507726,3.9573419668810947,0.17086394001945085,0
-0.31168330207345213,-3.5888868988738896,3.4045348333930705,0.13477031628363928,0
-0.3421191992365178,-3.5891033060099415,3.5130848289110954,0.25752156528073433,0
-0.13962958373704157,-3.2373663213576984,3.2246268292428915,0.014329257568827209,0
-0.31879571458636163,-3.9351494945891217,3.2822243136106204,0.06794397752178445,0
-0.6151109259248996,-4.332537153026977,3.5940905842674273,0.18061468852564574,0
-0.024696511485068916,-3.421361304623284,3.207469847428541,-0.00838823575095088,0
-0.3701269415290329,-4.420081775291401,4.125873370336666,0.2621314896249762,0
-0.37906889368646945,-4.600613379242954,3.810726269204634,0.017484902641965998,0
-0.008460787350229754,-3.784834622444048,4.960236679665968,0.20645340125726583,0
-0.6099043620480818,-4.452611747447783,3.590630656805863,0.081189848564172,0
-0.20003503760603045,-3.775921500057426,3.268711609935758,-0.07246538183915635,0
-0.08556145930860158,-3.276930994659509,3.2135437122149346,0.08403787248880785,0
-0.7491521058351257,-5.699664178233402,5.336988821268779,0.2664177661466489,0
-0.6781872055369137,-6.039858411565103,6.187812557659855,0.3670686467992004,0
-0.5586176463436383,-5.448683236705334,5.290287890493006,0.19845399920553913,0
-0.9641603003037953,-6.0016326732875305,4.835242073823032,0.1843377597071011,0
0.07722622540823001,-4.36688342974913,4.283436157662807,-0.053537661448720235,0
-0.12410274537034251,-5.303781720038292,4.9620151440717,0.12764424871888394,0
-0.27974172047950496,-4.8609740386676155,4.402409495261827,0.07886989355134767,0
-0.37120390268605935,-4.798777967880564,4.429121567991379,0.1074377239794861,0
-0.20669034379509665,-4.224590606458415,3.8157207693427315,0.10173966286357285,0
-0.1857653328648241,-4.118889915384592,3.945861403461847,-0.002553950056483426,0
-0.40707256678419057,-5.147639969449852,4.6295334105185155,0.21790570070725337,0
-0.16348975808042207,-4.670799978270924,4.225352384565342,0.061175207993371054,0
-0.11294932916663862,-3.8990108411498223,3.848379955162433,0.06133858076002751,0
-0.48284534879748003,-4.896721428137809,4.374868670926098,0.2162775192951635,0
-0.15355316071172154,-5.19112731669059,4.713220452812579,-0.047839362982806104,0
-0.498900169775385,-4.601503662813405,4.218639350472565,0.17488796895365044,0
-0.38430289098244946,-4.4111659634581555,4.14952438965522,0.17524904892773133,0
-0.10579814615970247,-4.2373038122131526,4.2106159089112865,0.005688999518324986,0
-0.06813019320477016,-4.33440956226643,4.236518433073682,-0.02448299587635729,0
-0.4580418275081304,-5.06706233048895,4.482601464079597,0.10481056101539085,0
-0.703052767520988,-5.593119072902561,4.65262163408096,0.3044665080759038,0
-0.5716652419703067,-5.312732874698249,5.428141420400717,0.2411540758332017,0
-0.5771956147121952,-5.2181772965936615,4.549644981927175,0.18141311039155167,0
-0.053203173372432154,-4.328643608690163,4.114965937844495,-0.009269417424756335,0
-0.8889597380486407,-5.380021576055755,4.755583129122645,0.20955764325889442,0
0.10063921323767798,-3.708610878135038,4.096055554572811,0.06095771525349745,0
-0.9353657579277233,-5.588644094550954,4.523284684816675,0.16051060864929562,0
-0.2569703179853898,-5.621567808298423,4.102309125084064,-0.26783733922408093,0
-0.004330058674147479,-3.2900615821906705,4.198383390695502,0.1361971224960834,0
-0.32773639088081485,-4.865898636271296,4.394529434163154,0.14776699019235798,0
-0.33227497071695494,-4.632664636257013,4.820668958501359,0.14385144909773948,0
-0.8415749845277162,-5.172623128352718,4.733633445176014,0.341244315479073,0
-0.34632008109120127,-5.167891148868874,5.215068122631837,0.191352689390347,0
0.024241314087430077,-4.3681725430234515,4.159050678307914,-0.054632397061253335,0
0.015449430347977583,-3.977184940379692,3.9502858664449674,0.009256642303454276,0
-0.010949201913415252,-4.072113722111635,4.042653927956112,-0.05921499802903537,0
0.01912480549222408,-3.6627155691477427,3.6716252365376323,-0.007835149525288814,0
0.02833146246231878,-4.298271756033513,3.9641564979774344,-0.038123115735995326,0
-0.11141752497856487,-3.94060110454629,3.5965720126141996,-0.0383782663315735,0
-0.13590182287880034,-5.011459694692917,4.531055573705569,-0.06369673445444117,0
-0.03671530925783917,-4.037825252518839,4.04325755753405,-0.013683578064422311,0
-0.4293683075508124,-4.945732472677593,4.429273512749081,0.1309442474601331,0
-0.04485923686752095,-4.310731563945515,4.113387197263616,0.05916069612675807,0
-0.16641052321070018,-4.476163521251406,4.237431644017825,0.0047024623951140345,0
-0.3534117562596067,-4.957904853674204,4.082866711721948,0.031540404811013785,0
-0.22497528158806632,-4.550054196972093,4.734405767352584,0.1567912087028184,0
-0.05882427782944541,-3.953299269965065,3.6154291357835007,-0.020130887792373632,0
0.05472604412203135,-4.0415442082917155,3.821967640008913,-0.046671270914495244,0
-0.002508295942471308,-3.7664955356030134,3.6480073738139094,-0.014323645077082418,0
0.050144957291616075,-4.215086752034214,4.194506949235553,-0.01556619389067267,0
-0.04973477073617039,-4.817998902047874,4.371005703094234,0.090862935092401,0
-0.23584384838233918,-4.0518189454337294,4.490210070111706,0.19776991952198297,0
-0.006291822884423324,-3.456893002429871,3.6876672728227624,-0.014900350191799874,0
-0.07019473671345879,-3.6255066505073503,3.44922736928065,0.035509732099422556,0
-0.6594322395036748,-4.821165377889154,4.521434398237814,0.26033528823033336,0
-0.40242368443736876,-4.5139382549734846,4.096181200766468,0.17694743819297337,0
-0.021147246859765628,-4.456400880073876,4.598538998724646,0.08768100724757334,0
-0.12138450541015228,-4.128131967918212,4.035617700436127,0.06685309593296204,0
0.033447284449264404,-4.049215890188381,3.769172183454414,0.000750648282554637,0
-0.040762542039920906,-3.9430660830518205,4.1787837510246755,0.08220221097991241,0
-0.31354165013416574,-4.236810812657405,4.18989570974909,0.09429581509389626,0
-0.011610346147712136,-3.204117085198664,3.6268695345233555,0.004439554750494633,0
-0.014600234729461157,-4.01002059303574,3.915296190288114,-0.01609678649932738,0
-0.30458444507366167,-5.246322217062312,4.646564891803013,0.0030674719548312744,0
-0.6353862612574971,-5.0609767981248535,5.248108221922458,0.3098891931529591,0
-0.18557263584424502,-4.490600982499737,4.287243219800391,0.0652679304555607,0
0.1277193351004178,-3.8730691137690427,4.034091073131097,-0.05992285178503444,0
-0.12372598739560813,-4.410739955850499,4.464137512585056,0.0689903809886457,0
-0.3036451456759451,-4.367591778156669,4.33217468204868,0.10969274306121235,0
-0.13677572958037262,-4.3628898846580135,5.079831160053785,0.22480182248946734,0
-0.2441569177171726,-4.682043276289065,4.029369472813688,0.10750791840618987,0
-0.18409217105638032,-4.384268922448652,4.3999752469922715,0.1790735633923012,0
-0.07145469293344915,-5.266034284706167,4.759609246443322,0.0946119282071091,0
-0.10526049802155801,-4.084593354786848,4.524432778860919,0.15400209053139385,0
-0.47011663751589367,-5.26688777084506,4.1214523554370075,0.050546739856816666,0
-0.34208726138582496,-4.83979969731533,5.235715293429997,0.32436346213396156,0
-0.17953803739095206,-4.046731884300554,3.940262148849332,0.13699003010998115,0
-0.07780387434492507,-4.222359552719187,4.175844179676135,-0.006582241991203356,0
-0.060736790635179894,-3.8499010766523925,3.7428807906416255,-0.014745076930965974,0
-0.3084071833264071,-4.635233169442385,4.909980800932413,0.10856122369737543,0
-0.22825030493344634,-3.9507717831853943,3.6306247975888954,0.09174342925892467,0
-0.001080284460373578,-3.1505551738073967,2.9865189247472204,-0.06472022556448177,0
-0.37222534259041695,-4.151019479613899,3.780700561093336,0.19895860153927258,0
-0.17695486195222485,-3.517067827086098,3.304850648311937,0.11118458995611831,0
-0.4144384731619026,-4.263702673058586,3.9109858769628016,0.18022802915794406,0
-0.26233517764458564,-3.9449683226701056,3.9988166987264075,0.21853502259845323,0
-0.3115218293879644,-3.577179757400339,3.935573579318987,0.26586621676600475,0
-0.16515046585765378,-3.405477734134697,3.4663164006744625,0.05365757372318058,0
-0.08196203310124167,-3.149989858424146,3.11945949716512,0.04017377389569191,0
-0.18466679571818512,-3.7216654398350366,3.439874390014791,0.14802688208234152,0
-0.11575058119836328,-3.45684819170489,3.2845690164103836,0.08611259751845415,0
-0.1316466781291226,-3.270392984380016,3.176411953913031,0.013879116617744503,0
0.10455038785129751,-3.2795069380286423,3.0847574596229856,-0.12470188482617123,0
0.007067582733345105,-3.513881829067489,3.395309410052475,-0.07860935847985681,0
-0.059814175803236974,-3.4139158844818933,3.4253606248848616,-0.006270701852719533,0
-0.44251012006555385,-3.8951284490173412,3.6083586875969003,0.2606474227961727,0
0.01928886474279538,-3.976020527548935,4.1700490411240025,0.09302339062007323,0
-0.5031900977768052,-3.7637013678788795,3.454090992560481,0.26676822162726155,0
-0.05198860407802636,-3.434517145984053,3.3097071788359402,-0.04194943052308047,0
-0.002669851136923899,-3.2778971998002095,3.0903151657040553,-0.020248195024165062,0
0.12088596150411364,-6.021367123658228,7.200188326173301,0.28450723726425653,0
0.3790022901738587,-5.401838602557222,9.667629028831904,1.05739294127643,0
-0.16197640563860627,-3.67125111570362,3.7844171369856583,-0.0151176589749396,0
-0.40350068426659874,-5.064084108361664,4.246661293072224,-0.2140700699519735,0
0.1742526054494389,-3.713202004845087,4.178567787726703,0.0002574529037696287,0
0.5559727677978742,-6.514169720085848,12.376236855419481,0.8081313884634835,0
0.03675382553722165,-4.210045458607185,4.461619152983457,-0.024591654091760468,0
-1.237172762249202,-6.546093946123517,6.11658184597977,0.43592409756440065,0
-0.6148802521916551,-6.182999588354031,5.578173617105581,0.09480635893019512,0
0.06878691204546143,-4.479645976316031,4.176107990859092,-0.06730946420847159,0
-1.6904412847050947,-11.174853322457547,6.044486762222743,-0.9300716519269958,0
-0.13062413748271154,-4.915603097064668,5.570303303414429,0.009123994440314996,0
0.2400603472795383,-4.030288723494757,3.9008490217466463,-0.2413789461879201,0
0.28929424814414756,-4.298620817001771,4.888495493152567,0.10904025931513037,0
-0.2249941379156335,-4.843964070293225,4.041252694903828,-0.10449208473781633,0
0.13468934203347188,-4.4240697709523085,5.063368426478925,0.19838479666508027,0
-2.151861424420593,-6.811312836091288,6.816648744607976,0.6496030463685226,0
-0.2298325466351704,-4.964599298227797,4.451329741685998,-0.0706472204181871,0
0.2844035959838421,-4.372105101889511,3.9178989009042926,-0.11625427491867209,0
-0.95852121430038,-6.817618675082025,6.779703531894402,0.061391993477541706,0
0.19103904147464926,-4.30267190622052,4.363808673659764,0.030313312982716004,0
-0.36320952262579076,-5.655079759643122,4.328762582783247,-0.3187855580273245,0
0.17654605029701007,-4.632423496473264,4.098416736211888,-0.2181962866824264,0
-0.202353621709871,-5.169068152911315,4.594572593085195,-0.2891030483097954,0
-0.19689117734044218,-5.608985826710821,5.065422133618565,-0.1615525563009731,0
0.04432500912501305,-3.7489244282641945,3.9569854511188787,-0.22271351761804214,0
-0.6718621765058851,-6.261158723280876,4.987872609845549,0.0590225247769282,0
0.07087074684842519,-4.84163790829951,4.41151920325876,-0.1284530944703166,0
0.10527892923474053,-4.6617736027425885,4.46311482952433,0.1103271138774473,0
0.16495922372940133,-5.211972323063716,7.212301118921047,0.05154433895322054,0
0.30453137070079606,-4.084905135393674,4.200140903468375,-0.005505101556829499,0
-0.0381812116558816,-5.334890088832117,5.719377344429718,-0.04844123175377824,0
-0.1945370430368291,-5.398220037991139,4.820792868740146,-0.2523037253395351,0
-0.03697914206094341,-4.895068437976552,4.506436553495728,-0.0847957685329677,0
0.15965240797130079,-4.342536313394093,4.399158444838985,-0.11745570696440721,0
-0.6809226607368982,-5.688726840749817,6.404530706405278,0.2509912369463313,0
0.13566608214294498,-4.154531383586413,4.315006013024645,-0.14875388548455393,0
0.08927848488883694,-7.267002523889753,13.922300153116133,1.0396948511960877,0
-0.5883325997871656,-5.628476496868528,5.206518657417108,0.038564069021782846,0
0.04353983377585976,-4.457197632520143,3.988403248369168,-0.14568746022156923,0
0.043739491213938546,-4.377577847410725,4.0503804369692595,-0.07946310372917569,0
0.13954010085174107,-4.391775171096285,4.428743675429285,0.005576537460982064,0
-0.6423718360132934,-6.566509238732722,5.491553552462422,-0.03348073865183526,0
-0.6723591263025,-5.7287984674561105,4.6145209439255295,-0.08604479244355548,0
-0.6927960714428533,-5.401415244240155,4.452149713137794,0.018780465005949595,0
-0.5339595216964067,-5.217328135849541,5.244412442747341,0.06281064645992415,0
-0.19758651496680726,-6.833215852716107,11.793813452433278,0.9327771231521583,0
0.11921780532792357,-4.060918916354856,3.649637451969379,-0.16206245279200762,0
0.05569771846402505,-3.88416111623577,3.4628798805555148,-0.04418525593469931,0
-0.1770411534918677,-5.439514281561651,6.007153768850559,0.055419385151534856,0
-1.2812284575552464,-6.70063247690512,5.254847278893088,0.1981645557905598,0
0.28861962539378166,-5.42273507958694,4.674118726512243,-0.08643514998817739,0
-1.2375060510316718,-7.712445502232696,7.055044287225777,0.11577645364558077,0
-1.0910699446086554,-7.626269694415816,7.774521018620751,0.11112221919872164,0
0.0320736376230292,-5.6424502443843245,4.994162279367076,-0.10703057121602376,0
0.10304231858324135,-5.664017321829846,5.1182227885119485,-0.09467523024541828,0
-1.1968436611629898,-7.457768874679962,5.632093843635589,0.006266019520282314,0
-0.7020624881258345,-5.728962414343666,6.019502271217638,0.0041050385937846205,0
-0.29346586608124287,-3.4066338123440723,2.516771020190294,-0.05646191495658311,0
-0.15511598602515106,-3.1691230107087707,2.7262394146674103,-0.04219318931552715,0
-0.04641532299922287,-3.7721600741051002,6.546438160388827,1.0421412638525125,0
-1.1688465993151793,-5.397575048652321,5.398964098204287,0.4677658642165513,0
-1.6710600712558368,-5.736123275995238,5.738097859949475,0.5697243939842713,0
-0.13327563759278274,-5.8464306427118675,4.467812101795669,-0.17106309794009986,0
-1.6679861171440795,-6.754445520555343,6.774122772264555,0.5297574842922276,0
-0.21199924263883116,-3.5729959439183725,4.002748118164111,0.10576532795654896,0
